time,channel_a0,channel_a1
98.17658948898315,650,290
98.1885998249054,648,318
98.19591188430786,646,290
98.205007314682,643,316
98.21494102478027,641,292
98.22879028320312,638,314
98.23869490623474,635,293
98.24761962890625,633,311
98.25694513320923,630,292
98.26441049575806,628,308
98.27518820762634,625,294
98.28743600845337,622,309
98.29660058021545,620,293
98.3115746974945,617,305
98.31657385826111,614,294
98.32467770576477,611,303
98.33469724655151,608,295
98.34922885894775,606,300
98.3582820892334,603,298
98.36629557609558,600,299
98.37544918060303,597,295
98.3844633102417,594,296
98.39475059509277,591,297
98.41545295715332,588,293
98.4164526462555,585,302
98.42587900161743,582,290
98.43977212905884,579,302
98.44628596305847,576,288
98.45502519607544,573,300
98.4697630405426,570,284
98.47482752799988,567,304
98.49047636985779,563,281
98.49547529220581,560,306
98.50519227981567,557,280
98.51559972763062,554,307
98.52578377723694,551,277
98.53542351722717,548,308
98.54534816741943,544,275
98.55542540550232,541,310
98.56798577308655,537,271
98.57575607299805,534,313
98.5863344669342,531,269
98.59554982185364,527,312
98.60463070869446,524,267
98.6145761013031,520,315
98.62778949737549,517,263
98.6377820968628,514,317
98.64547038078308,510,262
98.6570131778717,507,318
98.66449999809265,503,257
98.67883396148682,499,319
98.6992495059967,496,257
98.70246601104736,492,323
98.70476293563843,489,253
98.71452856063843,485,322
98.72491502761841,481,250
98.74921178817749,478,327
98.75051546096802,474,247
98.75552201271057,470,328
98.76647758483887,467,243
98.77547454833984,463,326
98.7856228351593,459,242
98.79695701599121,455,331
98.808424949646,452,240
98.81640863418579,448,332
98.8263213634491,444,238
98.83452463150024,440,330
98.84758830070496,436,233
98.85508680343628,432,333
98.86655497550964,428,231
98.8749349117279,424,332
98.88519144058228,420,229
98.89530849456787,416,335
98.91007113456726,412,227
98.91944622993469,409,337
98.92747473716736,405,227
98.93651294708252,400,337
98.94453048706055,396,226
98.9639081954956,392,336
98.96589374542236,388,227
98.97659087181091,384,336
98.98638892173767,380,228
98.99445962905884,376,339
99.00511026382446,372,230
99.02265238761902,368,341
99.03103423118591,364,229
99.03504872322083,359,340
99.04649329185486,355,230
99.05488348007202,351,341
99.06855487823486,347,232
99.07664847373962,343,342
99.08647513389587,339,232
99.09538888931274,334,342
99.10497164726257,330,234
99.11498093605042,326,343
99.13061761856079,321,236
99.13557505607605,317,346
99.1476514339447,313,239
99.15643453598022,309,344
99.16447877883911,304,239
99.17532348632812,300,346
99.18659162521362,295,241
99.19552826881409,291,346
99.20594716072083,287,243
99.21540117263794,282,347
99.22521424293518,278,245
99.23541688919067,273,348
99.25049424171448,269,245
99.25566291809082,264,349
99.2691707611084,260,247
99.27640271186829,256,350
99.28537702560425,251,251
99.30079483985901,247,351
99.30600261688232,242,250
99.31647419929504,238,353
99.32627201080322,233,253
99.33482813835144,228,353
99.34511208534241,224,253
99.35712003707886,219,355
99.36549878120422,215,254
99.37752318382263,210,357
99.38631868362427,206,254
99.39492607116699,201,360
99.40667629241943,197,255
99.41772031784058,192,364
99.42571902275085,187,256
99.43573427200317,183,365
99.44555449485779,178,252
99.45514869689941,174,369
99.4648289680481,169,252
99.48351716995239,164,371
99.485515832901,160,259
99.49668574333191,155,374
99.51285672187805,150,252
99.51654839515686,146,377
99.52669882774353,141,251
99.53542304039001,137,378
99.55072784423828,132,253
99.5591938495636,127,383
99.56549000740051,122,254
99.57573437690735,118,383
99.58608865737915,113,252
99.60559368133545,108,387
99.60768270492554,104,253
99.61918926239014,99,388
99.62730288505554,94,252
99.6353006362915,90,391
99.65180373191833,85,252
99.6567850112915,80,393
99.66919684410095,76,253
99.67544722557068,71,394
99.68444633483887,66,254
99.69531774520874,61,397
99.7079336643219,56,255
99.71568417549133,52,398
99.72951197624207,47,255
99.73651432991028,42,399
99.74448943138123,37,255
99.75527906417847,33,399
99.7738995552063,28,254
99.77800846099854,23,399
99.78677439689636,18,254
99.79764485359192,14,399
99.80770230293274,9,255
99.81754398345947,4,397
99.8266704082489,-1,256
99.83455443382263,-5,397
99.8476836681366,-10,259
99.85592746734619,-15,398
99.86661219596863,-19,263
99.87575006484985,-24,399
99.88470530509949,-29,263
99.89526176452637,-34,398
99.90512704849243,-38,263
99.91668272018433,-43,395
99.92540645599365,-48,261
99.93540120124817,-53,394
99.9487407207489,-57,259
99.95725297927856,-62,388
99.96944880485535,-67,254
99.97644877433777,-72,358
99.98544406890869,-76,241
99.99856948852539,-81,305
100.00654792785645,-86,219
100.01572299003601,-90,261
100.02555656433105,-95,177
100.03459048271179,-100,202
100.04547381401062,-104,104
100.06161522865295,-109,108
100.06561493873596,-113,-2
100.07740139961243,-118,-16
100.08559489250183,-122,-61
100.09545302391052,-127,-67
100.10475993156433,-131,-81
100.11708664894104,-135,-87
100.13345289230347,-138,-95
100.13568425178528,-142,-99
100.14543414115906,-145,-104
100.15538430213928,-148,-108
100.1648178100586,-150,-111
100.18060493469238,-153,-114
100.1891655921936,-154,-117
100.19994163513184,-155,-120
100.20696306228638,-155,-123
100.2154176235199,-152,-125
100.22968769073486,-143,-128
100.23679780960083,-120,-131
100.24743437767029,-80,-133
100.25689816474915,-62,-136
100.26533842086792,-57,-138
100.28363609313965,-51,-139
100.2865092754364,-61,-141
100.29594659805298,-71,-143
100.30595564842224,-51,-144
100.31544995307922,-51,-145
100.32545828819275,-51,-147
100.33757209777832,-52,-148
100.3456883430481,-53,-148
100.35590720176697,-54,-149
100.36756539344788,-55,-150
100.37454915046692,-56,-150
100.38753175735474,-56,-150
100.39768385887146,-58,-152
100.40809941291809,-58,-152
100.41597104072571,-59,-151
100.42546486854553,-59,-152
100.43551015853882,-56,-152
100.45081734657288,-51,-152
100.45882940292358,-61,-142
100.46548795700073,-61,-142
100.477530002594,-71,-142
100.48644065856934,-71,-142
100.49542689323425,-223,-142
100.50606775283813,-638,-142
100.51594161987305,-1955,-142
100.52920436859131,-2048,-132
100.5354266166687,-2048,-132
100.5453634262085,-2048,-122
100.55789399147034,-2048,-122
100.56661105155945,-2048,-102
100.57847738265991,-2048,-92
100.58745408058167,-2048,-81
100.59549188613892,-2048,-71
100.60501337051392,-2048,-61
100.617014169693,-2048,-61
100.62680459022522,-2048,-61
100.63646459579468,-2048,-61
100.64545750617981,-2048,-61
100.65500211715698,-2048,-61
100.66540837287903,-2048,-51
100.67675399780273,-2048,-51
100.68648433685303,-2048,-51
100.69550561904907,-2048,-51
100.70541548728943,-2048,-51
100.71496891975403,-2048,-41
100.72543835639954,-2048,-41
100.74068689346313,-2048,-41
100.75116395950317,-2048,-41
100.75718641281128,-2048,-41
100.76673603057861,-2048,-41
100.77547526359558,-2048,-41
100.78958368301392,-2048,-41
100.79761290550232,-2048,-41
100.80593943595886,-1782,-41
100.81534957885742,-679,-41
100.82544136047363,-304,-41
100.83519649505615,-92,-41
100.850576877594,-71,-41
100.85558319091797,-61,-41
100.86970901489258,-61,-41
100.87783408164978,-51,-41
100.88465976715088,-51,-41
100.90364575386047,-51,-41
100.9056465625763,-51,-41
100.91671514511108,-51,-41
100.92514085769653,-51,-41
100.93546390533447,-51,-41
100.94542241096497,-51,-41
100.95682382583618,-51,-41
100.96574473381042,-51,-41
100.97641086578369,-51,-41
100.98550534248352,-51,-41
100.99546098709106,-51,-41
101.00526094436646,-51,-41
101.02329015731812,-51,-41
101.02629089355469,-54,-46
101.03729128837585,-54,-46
101.04642176628113,-54,-47
101.05688834190369,-57,-50
101.0653748512268,-57,-51
101.08096671104431,-57,-52
101.08595418930054,-57,-52
101.09711623191833,-57,-52
101.10539054870605,-57,-54
101.11543083190918,-57,-54
101.12722754478455,-57,-55
101.13573408126831,-57,-55
101.14589166641235,-57,-55
101.15555667877197,-57,-55
101.16554641723633,-57,-55
101.17480039596558,-57,-55
101.18752598762512,-57,-55
101.19645762443542,-57,-55
101.20703983306885,-57,-55
101.21540236473083,-57,-55
101.22545576095581,-57,-55
101.23510360717773,-57,-55
101.24606037139893,-57,-55
101.25527477264404,-57,-56
101.26652550697327,-56,-56
101.27636241912842,-56,-58
101.28542423248291,-56,-52
101.29854726791382,-55,-73
101.30662941932678,-54,-147
101.31645774841309,-50,-154
101.32647800445557,-187,-162
101.33547401428223,-202,-84
101.34540891647339,-71,-31
101.35826873779297,-31,-21
101.36847758293152,-21,-11
101.3774950504303,-21,-11
101.38568115234375,-11,-11
101.39557099342346,-11,-11
101.40669822692871,-11,0
101.41713523864746,-11,0
101.42558598518372,0,0
101.43651819229126,0,0
101.44660592079163,0,0
101.45509910583496,0,0
101.47068381309509,0,0
101.47468686103821,0,0
101.48662328720093,0,0
101.49845361709595,0,0
101.50456666946411,0,0
101.5152587890625,0,0
101.52989029884338,0,0
101.5374550819397,0,0
101.54545879364014,0,0
101.55512714385986,0,0
101.56470966339111,0,0
101.57783484458923,0,0
101.59089612960815,0,0
101.60423851013184,0,0
101.6065902709961,0,0
101.61519193649292,0,0
101.62508296966553,0,0
101.63808751106262,0,0
101.64557385444641,0,0
101.6594967842102,0,0
101.66460919380188,0,0
101.68377113342285,0,0
101.68776965141296,0,0
101.69563627243042,0,0
101.70604848861694,0,0
101.71444368362427,0,0
101.72515106201172,0,0
101.73965454101562,0,0
101.74546384811401,0,0
101.75562787055969,0,0
101.76540970802307,0,0
101.774649143219,0,0
101.79095339775085,0,0
101.7971088886261,0,0
101.80740261077881,0,0
101.81847190856934,0,0
101.8243772983551,0,0
101.83526396751404,0,0
101.8487298488617,0,0
101.85940504074097,0,0
101.86916708946228,0,0
101.87537956237793,0,0
101.88471031188965,0,0
101.90066695213318,0,0
101.90563035011292,0,0
101.91955590248108,0,0
101.92555975914001,0,0
101.93543696403503,0,0
101.94446063041687,0,0
101.95557236671448,0,0
101.96766829490662,0,0
101.98088669776917,0,0
101.9849944114685,0,0
101.99486303329468,0,0
102.00612902641296,0,0
102.01553988456726,0,0
102.02542066574097,0,0
102.03538346290588,0,0
102.04514908790588,0,0
102.05513191223145,0,0
102.0775899887085,0,0
102.07959032058716,0,0
102.08558964729309,0,0
102.09659218788147,0,0
102.10647249221802,0,0
102.11481475830078,0,0
102.12508940696716,0,0
102.13572955131531,0,0
102.14551258087158,0,0
102.15492486953735,0,0
102.16452813148499,0,0
102.17573618888855,0,0
102.18567514419556,0,0
102.19551658630371,0,0
102.2049834728241,0,0
102.21534657478333,0,0
102.2252299785614,0,0
102.24049115180969,0,0
102.24549221992493,0,0
102.25843262672424,0,0
102.26534795761108,0,0
102.27919721603394,0,0
102.2932641506195,0,0
102.30232214927673,0,0
102.30632209777832,0,0
102.3162829875946,0,0
102.32470798492432,0,0
102.33477115631104,0,0
102.35149312019348,0,0
102.35600185394287,0,0
102.36719751358032,0,0
102.37554621696472,0,0
102.38484764099121,0,0
102.39738249778748,0,0
102.40639925003052,0,0
102.41662931442261,0,0
102.42449474334717,0,0
102.4353699684143,0,0
102.44471478462219,0,0
102.46197462081909,0,0
102.46797442436218,0,0
102.475515127182,0,0
102.48650598526001,0,0
102.49697780609131,0,0
102.50719785690308,0,0
102.51661038398743,0,0
102.52667307853699,0,0
102.53447198867798,0,0
102.54517698287964,0,0
102.55471992492676,0,0
102.57174801826477,0,0
102.57751297950745,0,0
102.58564949035645,0,0
102.59725499153137,0,0
102.60574269294739,0,0
102.61476182937622,0,0
102.6277482509613,0,0
102.63640284538269,0,0
102.64569592475891,0,0
102.65467619895935,0,0
102.6712532043457,0,0
102.67725849151611,0,0
102.6919617652893,0,0
102.69496321678162,0,0
102.70537304878235,0,0
102.71560549736023,0,0
102.7268328666687,0,0
102.73491263389587,0,0
102.74563813209534,0,0
102.755362033844,0,0
102.76529693603516,0,0
102.77472138404846,0,0
102.79383063316345,0,0
102.7948317527771,0,0
102.80525660514832,0,0
102.82060265541077,0,0
102.82661747932434,0,0
102.83549237251282,0,0
102.84757971763611,0,0
102.85566306114197,0,0
102.86546802520752,0,0
102.87448453903198,0,0
102.88455414772034,0,0
102.89563250541687,0,0
102.90569472312927,0,0
102.91643166542053,0,0
102.92544507980347,0,0
102.93528485298157,0,0
102.94489884376526,0,0
102.95765590667725,0,0
102.96555352210999,0,0
102.97639799118042,0,0
102.98435258865356,0,0
102.99529600143433,0,0
103.00520348548889,0,0
103.01463603973389,0,0
103.02553749084473,0,0
103.03546023368835,0,0
103.04634213447571,0,0
103.05492353439331,0,0
103.06487894058228,0,0
103.07750844955444,0,0
103.08549737930298,0,0
103.09460639953613,0,0
103.10593795776367,0,0
103.11537337303162,0,0
103.12525296211243,0,0
103.13623285293579,0,0
103.14723110198975,0,0
103.15573740005493,0,0
103.16474294662476,0,0
103.17451477050781,0,0
103.18527889251709,0,0
103.19856214523315,0,0
103.20531725883484,0,0
103.21639895439148,0,0
103.22634506225586,0,0
103.23451375961304,0,0
103.24557089805603,-11,-11
103.25835084915161,-11,-11
103.2665147781372,-11,-11
103.27640700340271,-11,-11
103.28540515899658,-21,-21
103.29542422294617,-31,-21
103.3048768043518,-41,-41
103.31877064704895,-187,-166
103.3278136253357,-193,-150
103.33979558944702,-179,-152
103.3448052406311,-54,-127
103.35543274879456,-55,-59
103.36657285690308,-56,-61
103.37587237358093,-56,-57
103.38734936714172,-57,-56
103.39639139175415,-57,-56
103.40689158439636,-57,-55
103.41545462608337,-57,-55
103.43465805053711,-57,-55
103.43566274642944,-57,-55
103.4466507434845,-57,-55
103.45705246925354,-57,-55
103.4651882648468,-57,-55
103.47561144828796,-57,-55
103.4870092868805,-57,-55
103.49665546417236,-57,-55
103.5080394744873,-57,-55
103.51642608642578,-57,-55
103.5254213809967,-57,-54
103.53547954559326,-57,-54
103.54633784294128,-57,-52
103.55521583557129,-57,-52
103.56650304794312,-57,-52
103.57737493515015,-57,-52
103.58565378189087,-57,-51
103.59556245803833,-57,-50
103.61480450630188,-54,-47
103.61603879928589,-54,-46
103.62551045417786,-54,-41
103.63948106765747,-51,-41
103.64547848701477,-51,-41
103.6559545993805,-51,-41
103.66889333724976,-51,-41
103.67660331726074,-51,-41
103.69060826301575,-51,-41
103.69560766220093,-51,-41
103.70532560348511,-51,-41
103.7177426815033,-51,-41
103.72769689559937,-51,-41
103.73745727539062,-51,-41
103.74745392799377,-51,-41
103.7550048828125,-51,-41
103.7718300819397,-51,-41
103.77781462669373,-51,-41
103.78665566444397,-51,-41
103.79744625091553,-61,-41
103.8059229850769,-61,-41
103.81548166275024,-71,-41
103.82673859596252,-92,-41
103.83688259124756,-254,-41
103.84678387641907,-578,-41
103.85648679733276,-1266,-41
103.86549234390259,-2048,-41
103.88086485862732,-2048,-41
103.88686490058899,-2048,-41
103.90114068984985,-2048,-41
103.90715527534485,-2048,-41
103.9155821800232,-2048,-41
103.92555332183838,-2048,-51
103.93666410446167,-2048,-51
103.94774198532104,-2048,-51
103.96046257019043,-2048,-51
103.96747756004333,-2048,-51
103.97652983665466,-2048,-61
103.98545694351196,-2048,-61
103.99574518203735,-2048,-61
104.0062484741211,-2048,-61
104.01651406288147,-2048,-61
104.02655053138733,-2048,-61
104.03545880317688,-2048,-71
104.04859519004822,-2048,-81
104.05578112602234,-2048,-81
104.06921291351318,-2048,-102
104.07746362686157,-2048,-122
104.08551692962646,-2048,-122
104.10369920730591,-2048,-132
104.10768222808838,-2048,-132
104.12142777442932,-2048,-132
104.12642645835876,-1357,-142
104.13741493225098,-588,-142
104.14580726623535,-193,-142
104.17484259605408,-71,-142
104.17484259605408,-71,-142
104.17782926559448,-61,-142
104.18703770637512,-61,-142
104.19641160964966,-51,-152
104.20692443847656,-56,-147
104.21492457389832,-59,-148
104.22656750679016,-59,-149
104.23683094978333,-59,-150
104.24773001670837,-58,-150
104.25700807571411,-57,-150
104.26542353630066,-56,-149
104.28262543678284,-56,-149
104.28762435913086,-55,-148
104.29565000534058,-54,-148
104.30749082565308,-53,-147
104.31534075737,-52,-145
104.32554292678833,-51,-144
104.338707447052,-51,-143
104.34692621231079,-51,-141
104.35633277893066,-71,-140
104.3665075302124,-71,-138
104.37673544883728,-53,-136
104.38704705238342,-54,-134
104.39612531661987,-71,-132
104.40958309173584,-83,-129
104.42160105705261,-137,-127
104.425616979599,-148,-124
104.44076776504517,-153,-121
104.44776725769043,-155,-119
104.45690870285034,-154,-116
104.46756291389465,-153,-113
104.47642469406128,-151,-110
104.48547267913818,-149,-107
104.49965810775757,-146,-102
104.50959134101868,-143,-98
104.5215196609497,-140,-92
104.52783608436584,-137,-85
104.53538942337036,-133,-76
104.55074739456177,-128,-68
104.5577495098114,-124,-51
104.56682634353638,-120,-33
104.57653784751892,-115,36
104.58586239814758,-111,61
104.5955183506012,-106,142
104.60679841041565,-102,140
104.61796975135803,-97,203
104.62753486633301,-92,186
104.636474609375,-88,242
104.6454644203186,-83,213
104.66231203079224,-78,260
104.66826844215393,-74,225
104.68220853805542,-69,272
104.68620681762695,-64,262
104.6960940361023,-60,278
104.70615339279175,-55,293
104.71963787078857,-50,285
104.72563767433167,-45,299
104.73663830757141,-41,288
104.74565935134888,-36,301
104.75551056861877,-31,291
104.76950693130493,-26,300
104.77751016616821,-22,295
104.7874116897583,-17,300
104.79737687110901,-12,295
104.80501961708069,-7,296
104.81587886810303,-3,299
104.83047986030579,2,295
104.83547735214233,7,301
104.84645080566406,12,294
104.85694169998169,16,298
104.86552786827087,21,293
104.87573099136353,26,298
104.88782095909119,31,290
104.8966908454895,35,302
104.90814232826233,40,291
104.91574835777283,45,301
104.92561531066895,50,286
104.93522357940674,54,304
104.95312666893005,59,284
104.96164917945862,64,307
104.96664786338806,69,283
104.97635078430176,73,305
104.98643493652344,78,282
104.99640989303589,83,305
105.00755667686462,88,280
105.01653361320496,92,305
105.026700258255,97,278
105.03545045852661,102,309
105.04525089263916,106,277
105.05624580383301,111,309
105.06671643257141,116,273
105.07639384269714,120,310
105.08540177345276,125,270
105.09598851203918,130,311
105.10566449165344,134,268
105.11571002006531,139,313
105.1266188621521,144,263
105.13549184799194,148,313
105.14539504051208,153,262
105.15547776222229,158,314
105.16572737693787,162,260
105.1815288066864,167,315
105.18820095062256,172,255
105.1963951587677,176,316
105.20687627792358,181,253
105.21576452255249,185,316
105.22836709022522,190,253
105.23571586608887,194,316
105.2463731765747,199,249
105.25752019882202,204,317
105.26550507545471,208,247
105.27566385269165,213,318
105.28947806358337,217,246
105.29650402069092,222,319
105.30693650245667,226,244
105.31541275978088,231,319
105.32518100738525,236,241
105.33667707443237,240,319
105.34649062156677,245,244
105.35610365867615,249,320
105.36536717414856,253,244
105.37575507164001,258,321
105.38952827453613,263,244
105.3975715637207,267,322
105.40799188613892,271,244
105.41636347770691,276,323
105.42562174797058,280,247
105.43520474433899,285,323
105.44859337806702,289,247
105.45615005493164,293,325
105.46719264984131,298,249
105.47642803192139,302,327
105.48541188240051,306,250
105.49766612052917,311,327
105.50567650794983,315,251
105.51639914512634,319,326
105.52538251876831,324,252
105.53620624542236,328,329
105.54640126228333,332,254
105.55567193031311,336,328
105.5657057762146,341,255
105.57538914680481,345,330
105.58551740646362,349,257
105.5957248210907,353,329
105.6076557636261,358,260
105.61763906478882,362,328
105.62771773338318,366,261
105.63544869422913,370,330
105.64548850059509,374,262
105.65549659729004,378,328
105.67061614990234,383,262
105.67762160301208,387,330
105.68662595748901,391,265
105.69608044624329,395,329
105.70620918273926,399,265
105.71552562713623,403,331
105.73064732551575,407,267
105.73663449287415,411,332
105.74763703346252,415,268
105.75497436523438,419,334
105.76574993133545,423,267
105.78474760055542,427,336
105.78773379325867,431,268
105.79683518409729,434,338
105.80738544464111,438,270
105.81762433052063,442,339
105.82545566558838,446,268
105.83544182777405,450,343
105.85145711898804,454,266
105.8554618358612,457,346
105.86651635169983,461,266
105.87640571594238,465,346
105.8856110572815,469,266
105.89777994155884,472,348
105.90636682510376,476,266
105.91910171508789,480,350
105.92635297775269,483,266
105.93572354316711,487,352
105.94556283950806,491,268
105.9606683254242,494,353
105.96842670440674,498,268
105.97636723518372,501,354
105.98544836044312,505,267
105.99766206741333,509,355
106.00582528114319,512,268
106.01606869697571,515,358
106.0258240699768,519,268
106.03749418258667,522,361
106.0453474521637,526,269
106.05574774742126,529,361
106.06647253036499,533,270
106.07571291923523,536,362
106.08663582801819,539,268
106.09541940689087,543,364
106.10587763786316,546,269
106.11582112312317,549,365
106.1265184879303,553,270
106.1364734172821,556,365
106.14642357826233,559,271
106.15497159957886,562,368
106.16575860977173,565,270
106.17871260643005,568,369
106.1855878829956,571,269
106.19640779495239,574,371
106.20597648620605,577,272
106.21533632278442,581,372
106.22594666481018,584,273
106.23772048950195,587,374
106.24631357192993,590,274
106.25589227676392,593,375
106.26526498794556,596,278
106.27577137947083,599,377
106.28861856460571,601,278
106.29762578010559,604,378
106.30546283721924,607,278
106.31847524642944,610,379
106.32546091079712,613,280
106.33554315567017,616,379
106.35117077827454,618,279
106.35616993904114,621,378
106.3674066066742,624,278
106.37755036354065,626,378
106.38541436195374,629,279
106.39576172828674,632,379
106.40727686882019,634,280
106.41577768325806,637,377
106.43080496788025,639,279
106.43580532073975,642,377
106.44609570503235,645,280
106.45520520210266,647,376
106.46699118614197,649,278
106.47564625740051,652,375
106.48759913444519,654,279
106.49573945999146,657,375
106.5055787563324,659,279
106.5160481929779,661,375
106.5326476097107,664,277
106.53952598571777,666,373
106.54857540130615,668,278
106.55954718589783,670,371
106.56668019294739,672,277
106.57569861412048,675,370
106.58920431137085,677,276
106.59664702415466,679,370
106.60768103599548,681,276
106.61644840240479,683,368
106.62577176094055,685,278
106.64091730117798,687,367
106.64691281318665,689,278
106.65950727462769,691,367
106.66916227340698,693,277
106.67643976211548,694,364
106.68565917015076,696,276
106.70276737213135,698,363
106.70577025413513,700,276
106.71557879447937,702,362
106.72560620307922,704,276
106.7353744506836,706,362
106.75250458717346,707,277
106.75676989555359,709,360
106.77134037017822,710,276
106.77733731269836,712,360
106.78549218177795,714,276
106.79597473144531,715,359
106.81055235862732,717,276
106.81555366516113,718,358
106.82645916938782,720,276
106.83680701255798,721,358
106.84570479393005,723,275
106.8557801246643,724,358
106.86914134025574,725,277
106.87742042541504,727,358
106.88633370399475,728,277
106.89642810821533,729,357
106.90566682815552,730,276
106.91592168807983,732,357
106.92665243148804,733,277
106.93602347373962,734,357
106.94593071937561,735,277
106.95548677444458,736,356
106.96583795547485,737,276
106.97561550140381,738,355
106.98658275604248,740,277
106.99657678604126,740,356
107.00591349601746,741,276
107.01542282104492,742,357
107.02587890625,743,277
107.03535151481628,744,356
107.0469241142273,745,278
107.05553221702576,746,355
107.06637573242188,747,278
107.0754964351654,747,354
107.08590316772461,748,278
107.09572291374207,749,355
107.11670422554016,749,278
107.11768984794617,750,352
107.1254358291626,751,280
107.13635587692261,751,353
107.14539289474487,752,280
107.15576839447021,752,354
107.1664206981659,753,279
107.17657089233398,753,353
107.18748617172241,754,282
107.19529318809509,754,352
107.20577883720398,754,281
107.21571230888367,755,352
107.23176574707031,755,281
107.23567175865173,755,342
107.2454891204834,755,307
107.25920677185059,756,318
107.26745963096619,756,318
107.27532315254211,756,312
107.28755211830139,756,320
107.29591655731201,756,311
107.30713486671448,756,321
107.31620049476624,756,311
107.3254644870758,756,323
107.33670139312744,756,308
107.34710359573364,756,319
107.35654044151306,756,319
107.36599946022034,756,308
107.37499952316284,756,334
107.3856201171875,756,300
107.39952683448792,755,337
107.40754199028015,755,290
107.41735696792603,755,347
107.42738342285156,755,283
107.43577980995178,754,345
107.44536471366882,754,284
107.45917201042175,754,344
107.4680688381195,753,284
107.47841691970825,753,343
107.4862802028656,752,286
107.49568128585815,752,344
107.50596904754639,751,286
107.51656246185303,751,342
107.52722334861755,750,285
107.53743624687195,750,342
107.54631567001343,749,287
107.55587768554688,748,339
107.57360672950745,748,286
107.5806896686554,747,337
107.58656716346741,746,288
107.59686183929443,745,335
107.60554242134094,744,287
107.61555361747742,744,333
107.62762761116028,742,288
107.63814687728882,742,331
107.64813995361328,741,289
107.65716099739075,740,328
107.66569375991821,739,290
107.67970037460327,738,329
107.68772482872009,737,291
107.6956787109375,736,326
107.70658946037292,734,291
107.71554899215698,733,324
107.72592043876648,732,290
107.7407078742981,731,322
107.74622774124146,730,291
107.75856018066406,728,321
107.76640605926514,727,291
107.77537417411804,726,319
107.79279708862305,725,292
107.79681158065796,723,317
107.8090147972107,722,292
107.82043170928955,720,314
107.82543992996216,719,292
107.84263205528259,717,312
107.84763503074646,716,293
107.85721755027771,714,312
107.86753702163696,713,294
107.8754198551178,711,309
107.89428758621216,709,295
107.89751839637756,708,308
107.91203451156616,706,296
107.91703462600708,704,306
107.92603969573975,703,296
107.93570327758789,701,305
107.94740271568298,699,296
107.95679664611816,697,304
107.96750378608704,695,298
107.97640657424927,693,300
107.98611831665039,692,298
107.99577569961548,690,300
108.00661301612854,688,300
108.01547598838806,686,298
108.02552533149719,684,300
108.03535413742065,682,296
108.04551100730896,680,300
108.05625200271606,678,294
108.06891655921936,675,305
108.07744598388672,673,293
108.08943772315979,671,303
108.0954532623291,669,290
108.10608649253845,667,302
108.11580276489258,664,288
108.12974405288696,662,309
108.13674855232239,660,287
108.14753007888794,657,306
108.1558609008789,655,284
108.16613483428955,653,305
108.17579531669617,650,284
108.18656849861145,648,311
108.20047760009766,645,281
108.20647668838501,643,308
108.21592307090759,640,277
108.2261209487915,638,308
108.23619771003723,635,276
108.24784016609192,633,315
108.25651812553406,630,273
108.26639366149902,628,315
108.27635550498962,625,272
108.28534173965454,622,313
108.29588222503662,620,271
108.30937266349792,617,317
108.3164610862732,614,268
108.32633304595947,611,315
108.33533883094788,608,266
108.34613156318665,605,315
108.35785484313965,603,262
108.36654734611511,600,317
108.37740063667297,597,261
108.38584113121033,594,317
108.3962013721466,591,257
108.40710473060608,588,319
108.41739559173584,585,254
108.42602801322937,582,319
108.4360089302063,579,252
108.44614243507385,576,319
108.45601558685303,573,251
108.46919202804565,570,322
108.4765236377716,567,248
108.48796534538269,563,322
108.49635553359985,560,246
108.5060043334961,557,322
108.5156319141388,554,246
108.52674674987793,550,323
108.53570318222046,547,242
108.54771542549133,544,322
108.5561876296997,540,244
108.56614589691162,537,322
108.57571029663086,534,243
108.5869824886322,530,324
108.59664416313171,527,245
108.60624623298645,524,324
108.61563467979431,520,245
108.62601375579834,517,324
108.63565325737,513,247
108.65383005142212,510,324
108.65683007240295,506,246
108.67063641548157,503,326
108.68131351470947,499,248
108.68569326400757,496,328
108.69659543037415,492,250
108.70561575889587,489,327
108.72150731086731,485,251
108.72750544548035,481,329
108.74545454978943,477,252
108.74745607376099,474,328
108.75608944892883,470,252
108.76661944389343,466,327
108.77670216560364,463,256
108.78660535812378,459,329
108.79556107521057,455,258
108.80601930618286,451,330
108.81559920310974,447,258
108.82864928245544,444,329
108.83919095993042,440,260
108.85464119911194,436,331
108.86158490180969,432,261
108.87061929702759,428,329
108.87661814689636,424,262
108.88586187362671,420,331
108.8977575302124,416,263
108.91049599647522,412,331
108.91749501228333,408,264
108.92540979385376,404,332
108.93508958816528,400,264
108.94781351089478,396,333
108.96113514900208,392,266
108.96713519096375,388,335
108.97613191604614,384,267
108.98588180541992,380,338
108.9991626739502,376,264
109.00663876533508,372,341
109.01744985580444,368,266
109.02546501159668,363,343
109.03636717796326,359,264
109.04766869544983,355,344
109.05669617652893,351,263
109.06647849082947,347,347
109.07539081573486,342,264
109.08648920059204,338,348
109.0978307723999,334,264
109.10726046562195,330,350
109.11751818656921,325,265
109.12654328346252,321,353
109.13552570343018,317,265
109.14757323265076,313,355
109.15722465515137,308,264
109.16756916046143,304,356
109.17653751373291,299,265
109.18764019012451,295,357
109.20015597343445,291,264
109.20616316795349,286,360
109.21761393547058,282,265
109.22920942306519,277,361
109.23537158966064,273,265
109.25219631195068,269,363
109.25819659233093,264,266
109.27058219909668,260,364
109.27758002281189,255,267
109.28552484512329,251,364
109.29565858840942,246,267
109.30644750595093,242,367
109.3178768157959,237,267
109.3264901638031,233,369
109.33566880226135,228,267
109.34562253952026,224,368
109.35725522041321,219,267
109.36668658256531,215,372
109.37649369239807,210,266
109.38748860359192,206,372
109.39626932144165,201,268
109.40952491760254,196,375
109.41767001152039,192,272
109.42655181884766,187,376
109.43754935264587,183,272
109.44546341896057,178,378
109.4616014957428,173,275
109.46659874916077,169,381
109.48094749450684,164,276
109.48794603347778,159,381
109.49596118927002,155,275
109.51151871681213,150,380
109.51654601097107,145,276
109.52919840812683,141,380
109.53753972053528,136,276
109.5454969406128,131,381
109.55520749092102,127,275
109.56778573989868,122,380
109.58156728744507,118,276
109.58756589889526,113,380
109.59560966491699,108,276
109.60671710968018,103,379
109.61652255058289,99,275
109.63849306106567,94,378
109.64063334465027,89,275
109.65001702308655,85,377
109.65601897239685,80,274
109.66582322120667,75,376
109.68067264556885,70,275
109.68766498565674,66,375
109.69664144515991,61,273
109.70597100257874,56,374
109.715500831604,51,273
109.72875165939331,47,372
109.73580193519592,42,273
109.74750566482544,37,372
109.75593829154968,32,274
109.76621580123901,28,372
109.7802324295044,23,273
109.78692197799683,18,370
109.79556083679199,13,273
109.80604648590088,9,367
109.81505012512207,4,273
109.8279767036438,-1,368
109.8361029624939,-6,272
109.84920024871826,-10,363
109.85571599006653,-15,271
109.86549401283264,-20,362
109.8783643245697,-25,271
109.88786149024963,-29,362
109.89756989479065,-34,270
109.908123254776,-39,359
109.91547870635986,-44,269
109.93078231811523,-48,357
109.93678283691406,-53,266
109.94857263565063,-58,354
109.95771861076355,-63,261
109.96562671661377,-67,325
109.98277926445007,-72,253
109.98756623268127,-77,283
110.00070095062256,-81,236
110.00870656967163,-86,238
110.01612091064453,-91,205
110.03243041038513,-95,194
110.03740072250366,-100,148
110.04621171951294,-104,122
110.05675220489502,-109,57
110.06553173065186,-114,4
110.07518935203552,-118,-43
110.08883714675903,-122,-59
110.10109853744507,-127,-72
110.10741543769836,-131,-81
110.1156165599823,-135,-89
110.12637567520142,-139,-95
110.14331817626953,-142,-100
110.14732336997986,-145,-105
110.15831542015076,-148,-108
110.16555762290955,-151,-112
110.17601442337036,-153,-115
110.18773627281189,-154,-118
110.1965696811676,-155,-120
110.20608139038086,-155,-123
110.21545791625977,-152,-126
110.22567820549011,-142,-129
110.23883819580078,-110,-131
110.24776434898376,-80,-134
110.25716185569763,-61,-136
110.26746726036072,-56,-138
110.2763044834137,-51,-140
110.2888753414154,-61,-141
110.29694271087646,-71,-143
110.3082218170166,-51,-145
110.31644439697266,-51,-146
110.32586121559143,-51,-147
110.34783983230591,-52,-148
110.349928855896,-53,-149
110.35693359375,-54,-149
110.3663740158081,-55,-150
110.37742590904236,-56,-150
110.38608002662659,-56,-150
110.40097880363464,-58,-152
110.40799331665039,-59,-152
110.41638946533203,-59,-151
110.42542552947998,-59,-152
110.43627166748047,-56,-152
110.44802331924438,-51,-152
110.46065473556519,-61,-142
110.46868419647217,-61,-142
110.47735071182251,-71,-142
110.48642301559448,-81,-142
110.49563527107239,-254,-142
110.50778436660767,-648,-142
110.51663994789124,-2048,-142
110.52852630615234,-2048,-132
110.53669548034668,-2048,-132
110.54628252983093,-2048,-122
110.55572175979614,-2048,-122
110.56728720664978,-2048,-102
110.57677483558655,-2048,-92
110.58642387390137,-2048,-81
110.59556484222412,-2048,-71
110.60619020462036,-2048,-61
110.61547517776489,-2048,-61
110.62756252288818,-2048,-61
110.63753581047058,-2048,-61
110.64909386634827,-2048,-61
110.65985321998596,-2048,-61
110.66598606109619,-2048,-51
110.67622303962708,-2048,-51
110.69058609008789,-2048,-51
110.69756364822388,-2048,-51
110.70789337158203,-2048,-51
110.71737957000732,-2048,-41
110.72552490234375,-2048,-41
110.73589730262756,-2048,-41
110.75464200973511,-2048,-41
110.7625687122345,-2048,-41
110.77149605751038,-2048,-41
110.77749443054199,-2048,-41
110.78946924209595,-2048,-41
110.79799151420593,-2048,-41
110.80578136444092,-1631,-41
110.81805372238159,-638,-41
110.8270616531372,-284,-41
110.8386902809143,-92,-41
110.84659051895142,-71,-41
110.85625767707825,-61,-41
110.87262725830078,-61,-41
110.87662696838379,-51,-41
110.88753986358643,-51,-41
110.89827871322632,-51,-41
110.90600848197937,-51,-41
110.91576075553894,-51,-41
110.92786002159119,-51,-41
110.93655610084534,-51,-41
110.94755387306213,-51,-41
110.95621514320374,-51,-41
110.9655339717865,-51,-41
110.97590827941895,-51,-41
110.98758554458618,-51,-41
110.99680042266846,-51,-41
111.00733613967896,-51,-41
111.01606488227844,-51,-41
111.02638554573059,-54,-46
111.03633236885071,-54,-46
111.04668974876404,-54,-47
111.05602812767029,-57,-51
111.06641125679016,-57,-51
111.07644724845886,-57,-52
111.0863037109375,-57,-52
111.09581255912781,-57,-52
111.1095142364502,-57,-54
111.11853909492493,-57,-54
111.12562084197998,-57,-55
111.13639569282532,-57,-55
111.1464262008667,-57,-55
111.16066384315491,-57,-55
111.1686646938324,-57,-55
111.17744541168213,-57,-55
111.18640947341919,-57,-55
111.19631290435791,-57,-55
111.20634460449219,-57,-55
111.2168779373169,-57,-55
111.22654318809509,-57,-55
111.23778247833252,-57,-55
111.24653935432434,-57,-55
111.25612545013428,-57,-56
111.26691102981567,-56,-56
111.27673768997192,-56,-58
111.28866720199585,-56,-53
111.29653000831604,-55,-80
111.3062973022461,-54,-150
111.32409477233887,-94,-154
111.32809495925903,-187,-163
111.33729982376099,-202,-74
111.34653639793396,-61,-31
111.35589861869812,-31,-21
111.37364935874939,-21,-11
111.37865257263184,-11,-11
111.39059615135193,-11,-11
111.39759516716003,-11,-11
111.4075117111206,-11,0
111.41607880592346,-11,0
111.42776656150818,0,0
111.43585181236267,0,0
111.44663739204407,0,0
111.4560272693634,0,0
111.46654224395752,0,0
111.47871899604797,0,0
111.49043393135071,0,0
111.49687838554382,0,0
111.50613689422607,0,0
111.51620149612427,0,0
111.52762222290039,0,0
111.53787469863892,0,0
111.5479576587677,0,0
111.55571365356445,0,0
111.56554818153381,0,0
111.57869005203247,0,0
111.5869402885437,0,0
111.5992259979248,0,0
111.60741996765137,0,0
111.61543560028076,0,0
111.62880277633667,0,0
111.63797378540039,0,0
111.64835453033447,0,0
111.65707063674927,0,0
111.66622233390808,0,0
111.68268918991089,0,0
111.68868947029114,0,0
111.69621014595032,0,0
111.7086124420166,0,0
111.71565246582031,0,0
111.72614002227783,0,0
111.73667001724243,0,0
111.74667096138,0,0
111.75590467453003,0,0
111.76563739776611,0,0
111.7763602733612,0,0
111.79246950149536,0,0
111.7974681854248,0,0
111.81051421165466,0,0
111.81663990020752,0,0
111.82781147956848,0,0
111.8355622291565,0,0
111.84953117370605,0,0
111.85712170600891,0,0
111.8671178817749,0,0
111.87642359733582,0,0
111.88620686531067,0,0
111.89665842056274,0,0
111.90618228912354,0,0
111.91753816604614,0,0
111.9263608455658,0,0
111.93607091903687,0,0
111.94590544700623,0,0
111.95948600769043,0,0
111.96556544303894,0,0
111.97642636299133,0,0
111.98629808425903,0,0
111.99636912345886,0,0
112.00630974769592,0,0
112.01679563522339,0,0
112.02647256851196,0,0
112.03756737709045,0,0
112.04654908180237,0,0
112.0562994480133,0,0
112.06644749641418,0,0
112.07631754875183,0,0
112.08748769760132,0,0
112.095698595047,0,0
112.10621976852417,0,0
112.11556100845337,0,0
112.12760901451111,0,0
112.13754487037659,0,0
112.14654350280762,0,0
112.15605735778809,0,0
112.16598105430603,0,0
112.18577003479004,0,0
112.18577003479004,0,0
112.19682097434998,0,0
112.20682907104492,0,0
112.21636533737183,0,0
112.2262225151062,0,0
112.23659157752991,0,0
112.24620246887207,0,0
112.25649428367615,0,0
112.2656786441803,0,0
112.27620506286621,0,0
112.28588032722473,0,0
112.29786396026611,0,0
112.30625510215759,0,0
112.31634593009949,0,0
112.32632660865784,0,0
112.33613109588623,0,0
112.34573078155518,0,0
112.35602402687073,0,0
112.36774706840515,0,0
112.37594151496887,0,0
112.38642382621765,0,0
112.3964831829071,0,0
112.40727305412292,0,0
112.41587829589844,0,0
112.42645168304443,0,0
112.43663620948792,0,0
112.44548892974854,0,0
112.45613837242126,0,0
112.46576309204102,0,0
112.47762680053711,0,0
112.48644375801086,0,0
112.49638605117798,0,0
112.50584554672241,0,0
112.5164122581482,0,0
112.52627897262573,0,0
112.53677749633789,0,0
112.54655766487122,0,0
112.55747532844543,0,0
112.56551456451416,0,0
112.57651853561401,0,0
112.58795857429504,0,0
112.59663987159729,0,0
112.60592317581177,0,0
112.61640310287476,0,0
112.62640905380249,0,0
112.63619089126587,0,0
112.64589214324951,0,0
112.65849733352661,0,0
112.66842579841614,0,0
112.67647075653076,0,0
112.68548703193665,0,0
112.69853591918945,0,0
112.70726180076599,0,0
112.71596336364746,0,0
112.72636318206787,0,0
112.73555278778076,0,0
112.74567937850952,0,0
112.76165747642517,0,0
112.76665663719177,0,0
112.77636671066284,0,0
112.78633451461792,0,0
112.79630541801453,0,0
112.8057849407196,0,0
112.8191647529602,0,0
112.8264410495758,0,0
112.83963179588318,0,0
112.84773898124695,0,0
112.85622000694275,0,0
112.86969304084778,0,0
112.87573719024658,0,0
112.88864874839783,0,0
112.89649176597595,0,0
112.90648531913757,0,0
112.92255640029907,0,0
112.92754483222961,0,0
112.93668007850647,0,0
112.94663095474243,0,0
112.9559075832367,0,0
112.9737024307251,0,0
112.9794602394104,0,0
112.98652458190918,0,0
112.99667191505432,0,0
113.00691175460815,0,0
113.01645112037659,0,0
113.02697944641113,0,0
113.03681707382202,0,0
113.04612874984741,0,0
113.05641078948975,0,0
113.06642079353333,0,0
113.07770252227783,0,0
113.08737754821777,0,0
113.0962302684784,0,0
113.10923075675964,0,0
113.11547636985779,0,0
113.13077354431152,0,0
113.13605451583862,0,0
113.1509850025177,0,0
113.15644812583923,0,0
113.16643023490906,0,0
113.18369770050049,0,0
113.1868646144867,0,0
113.19727110862732,0,0
113.20881843566895,0,0
113.21681904792786,0,0
113.22581791877747,0,0
113.23748636245728,0,0
113.24772238731384,-11,-11
113.25929474830627,-11,-11
113.26733541488647,-11,-11
113.276362657547,-11,-11
113.28649139404297,-21,-21
113.29761528968811,-31,-21
113.3082480430603,-51,-51
113.31762313842773,-200,-165
113.32753348350525,-191,-151
113.33658838272095,-173,-152
113.35185718536377,-54,-115
113.35585594177246,-55,-57
113.37044858932495,-56,-58
113.37744760513306,-56,-57
113.38641667366028,-57,-56
113.39650225639343,-57,-55
113.4096577167511,-57,-55
113.42650699615479,-57,-55
113.42750716209412,-57,-55
113.43645095825195,-57,-55
113.44671106338501,-57,-55
113.46074533462524,-57,-55
113.46772456169128,-57,-55
113.47652864456177,-57,-55
113.48950123786926,-57,-55
113.49640679359436,-57,-55
113.50697374343872,-57,-55
113.51741027832031,-57,-55
113.53089451789856,-57,-54
113.53689169883728,-57,-54
113.54759860038757,-57,-52
113.55665183067322,-57,-52
113.56650900840759,-57,-52
113.5768256187439,-57,-51
113.58708596229553,-57,-51
113.59947538375854,-57,-50
113.61035776138306,-54,-46
113.62141919136047,-54,-46
113.62640476226807,-54,-41
113.6519820690155,-51,-41
113.65264296531677,-51,-41
113.6626489162445,-51,-41
113.66990780830383,-51,-41
113.67701745033264,-51,-41
113.68669867515564,-51,-41
113.69669795036316,-51,-41
113.71072697639465,-51,-41
113.71763682365417,-51,-41
113.72763562202454,-51,-41
113.73863554000854,-51,-41
113.74663734436035,-51,-41
113.7647442817688,-51,-41
113.77071523666382,-51,-41
113.77755308151245,-51,-41
113.78664803504944,-51,-41
113.798504114151,-61,-41
113.80643796920776,-61,-41
113.81850218772888,-71,-41
113.82923364639282,-92,-41
113.84053897857666,-284,-41
113.84753465652466,-608,-41
113.85597801208496,-1479,-41
113.8737576007843,-2048,-41
113.87675905227661,-2048,-41
113.88661503791809,-2048,-41
113.89820456504822,-2048,-41
113.90646481513977,-2048,-41
113.91963529586792,-2048,-41
113.92654967308044,-2048,-51
113.93911743164062,-2048,-51
113.94801330566406,-2048,-51
113.95602464675903,-2048,-51
113.96616911888123,-2048,-51
113.97868061065674,-2048,-61
113.98754715919495,-2048,-61
113.99760961532593,-2048,-61
114.00684213638306,-2048,-61
114.01667547225952,-2048,-61
114.026118516922,-2048,-61
114.04375267028809,-2048,-71
114.05058288574219,-2048,-81
114.05661034584045,-2048,-81
114.06740307807922,-2048,-102
114.07640051841736,-2048,-122
114.08752274513245,-2048,-122
114.0970675945282,-2048,-132
114.10914492607117,-2048,-132
114.11647820472717,-2048,-142
114.12677335739136,-1276,-142
114.1362075805664,-537,-142
114.14919304847717,-173,-142
114.15800833702087,-71,-142
114.16861033439636,-71,-142
114.17846298217773,-61,-142
114.18844938278198,-61,-142
114.19656753540039,-51,-142
114.21152353286743,-56,-152
114.21754121780396,-59,-148
114.22932839393616,-59,-149
114.23738288879395,-59,-150
114.24634623527527,-58,-150
114.26276016235352,-57,-150
114.26802110671997,-56,-150
114.27902126312256,-55,-149
114.28902173042297,-55,-148
114.29639267921448,-54,-147
114.30605435371399,-53,-146
114.31910490989685,-52,-145
114.32873344421387,-51,-144
114.33917546272278,-51,-143
114.34636759757996,-71,-141
114.3566505908966,-71,-140
114.36663889884949,-71,-138
114.38052582740784,-53,-136
114.38753056526184,-56,-134
114.39734172821045,-74,-131
114.4078357219696,-94,-129
114.41681551933289,-136,-127
114.42623805999756,-149,-124
114.44806098937988,-154,-121
114.45056986808777,-155,-118
114.46808528900146,-154,-116
114.46808528900146,-153,-113
114.47635173797607,-151,-110
114.48665070533752,-149,-106
114.49958539009094,-146,-103
114.50677466392517,-143,-97
114.51741528511047,-140,-92
114.52644300460815,-136,-83
114.53684997558594,-132,-78
114.54656553268433,-128,-63
114.55753707885742,-123,-57
114.56751418113708,-119,-6
114.57646179199219,-115,2
114.58667707443237,-110,109
114.59649562835693,-106,96
114.60788702964783,-101,194
114.61747908592224,-97,155
114.62743973731995,-92,239
114.63643479347229,-87,190
114.64666199684143,-83,265
114.65802073478699,-78,209
114.66789770126343,-73,279
114.67752695083618,-69,220
114.68839502334595,-64,292
114.6964659690857,-59,224
114.70682191848755,-54,304
114.71608090400696,-50,229
114.72751140594482,-45,312
114.73746180534363,-40,235
114.74736523628235,-35,316
114.75666928291321,-30,240
114.76671171188354,-26,317
114.77656531333923,-21,240
114.78791856765747,-16,318
114.79740810394287,-12,240
114.80891942977905,-7,319
114.81691694259644,-2,241
114.8267412185669,2,320
114.83633065223694,7,241
114.85063457489014,12,320
114.8568787574768,17,241
114.87089109420776,22,322
114.8768994808197,26,243
114.88644981384277,31,322
114.89746236801147,36,244
114.9065990447998,40,324
114.91861772537231,45,245
114.92733001708984,50,323
114.93667960166931,55,247
114.94631671905518,60,324
114.95861554145813,64,248
114.96778154373169,69,324
114.97930717468262,74,250
114.98846364021301,79,326
114.99671387672424,83,251
115.00678992271423,88,327
115.01851511001587,93,253
115.02659869194031,97,327
115.03715872764587,102,254
115.0476188659668,107,326
115.05683016777039,111,255
115.06663727760315,116,328
115.07778358459473,121,257
115.08747577667236,125,328
115.09738779067993,130,259
115.10779786109924,135,328
115.11684536933899,139,260
115.13291716575623,144,329
115.1397590637207,149,261
115.14698934555054,153,330
115.15912890434265,158,263
115.16637253761292,163,330
115.17692613601685,167,262
115.191415309906,172,333
115.1974196434021,177,265
115.20664668083191,181,333
115.21908688545227,186,265
115.22647881507874,190,335
115.24157524108887,195,265
115.24757647514343,200,338
115.2581045627594,204,264
115.26854729652405,209,341
115.2763307094574,213,262
115.28630805015564,218,345
115.29754161834717,222,264
115.307861328125,227,346
115.31861662864685,231,262
115.3266191482544,236,348
115.33684611320496,240,263
115.35563278198242,245,351
115.35763120651245,249,263
115.36767649650574,254,351
115.37731981277466,258,264
115.38628387451172,263,354
115.39677333831787,267,264
115.41085696220398,272,356
115.42349410057068,276,263
115.42849612236023,280,358
115.43642711639404,285,263
115.44691729545593,289,360
115.45669913291931,294,266
115.47913074493408,298,362
115.48034000396729,302,265
115.5013816356659,307,365
115.5013816356659,311,266
115.50700211524963,316,366
115.51752853393555,320,265
115.52957940101624,324,368
115.53668069839478,328,265
115.54754090309143,333,370
115.55691170692444,337,267
115.56655144691467,341,371
115.57752776145935,345,267
115.58652448654175,349,372
115.60081815719604,354,268
115.60681486129761,358,376
115.61643862724304,362,270
115.62689447402954,366,375
115.63797807693481,371,270
115.65744519233704,375,377
115.65844488143921,379,273
115.66751194000244,383,380
115.67661643028259,387,275
115.69419145584106,391,381
115.69819045066833,395,275
115.71096992492676,399,381
115.71942949295044,403,276
115.726571559906,407,383
115.73655915260315,411,275
115.74760055541992,415,382
115.75679421424866,419,276
115.76655411720276,423,381
115.77655148506165,427,275
115.78680491447449,431,381
115.8011531829834,435,277
115.80737352371216,439,380
115.8194432258606,443,275
115.83049201965332,446,380
115.8366231918335,450,275
115.85061287879944,454,378
115.85638523101807,458,275
115.86807107925415,462,377
115.88043689727783,465,274
115.88640522956848,469,377
115.89654040336609,473,275
115.90783548355103,476,376
115.91651940345764,480,273
115.92847156524658,484,377
115.93733167648315,487,274
115.94679355621338,491,375
115.95657896995544,495,273
115.96943545341492,498,374
115.9775185585022,502,273
115.98740983009338,505,373
115.99845814704895,509,273
116.00679278373718,512,370
116.01618838310242,516,275
116.02767992019653,519,369
116.03848099708557,523,273
116.04766750335693,526,368
116.05637431144714,530,274
116.06679201126099,533,368
116.07669520378113,536,275
116.08946132659912,540,365
116.09753060340881,543,273
116.106600522995,546,364
116.11724996566772,550,274
116.12655067443848,553,364
116.13708519935608,556,272
116.14766836166382,559,362
116.15601968765259,562,274
116.16764044761658,566,362
116.17646360397339,569,272
116.18679976463318,572,361
116.19787764549255,575,273
116.20771837234497,578,361
116.21836304664612,581,274
116.2261073589325,584,359
116.23679113388062,587,274
116.24682593345642,590,358
116.25719690322876,593,273
116.2674503326416,596,358
116.27737498283386,599,274
116.28635454177856,602,358
116.29689049720764,605,274
116.30679130554199,607,359
116.32174968719482,610,273
116.3277485370636,613,357
116.33747005462646,616,275
116.34650039672852,619,356
116.35678029060364,621,275
116.36603856086731,624,357
116.3900408744812,627,274
116.39177346229553,629,357
116.3997733592987,632,275
116.41032528877258,634,357
116.41634011268616,637,276
116.42630362510681,640,356
116.43858742713928,642,274
116.44649600982666,645,356
116.45737147331238,647,276
116.46741271018982,650,356
116.47702097892761,652,276
116.48895502090454,654,354
116.49671936035156,657,277
116.50842452049255,659,355
116.51633334159851,662,278
116.52696061134338,664,354
116.5370421409607,666,279
116.54913425445557,668,352
116.5570638179779,670,278
116.57056021690369,673,353
116.57846713066101,675,279
116.58683156967163,677,352
116.59670281410217,679,278
116.60695838928223,681,351
116.61640858650208,683,280
116.62910413742065,685,351
116.63693737983704,687,281
116.64631867408752,689,350
116.65861105918884,691,281
116.66756081581116,693,349
116.67765283584595,695,282
116.68645119667053,697,349
116.69681239128113,699,282
116.70902276039124,700,348
116.7178750038147,702,283
116.72801852226257,704,347
116.73756718635559,706,283
116.74649238586426,707,347
116.76031422615051,709,283
116.7678747177124,711,346
116.77820491790771,712,284
116.7874801158905,714,345
116.79643607139587,715,285
116.80683898925781,717,346
116.8215799331665,719,284
116.82758045196533,720,345
116.83741450309753,721,285
116.84651064872742,723,344
116.8562364578247,724,285
116.87157225608826,726,345
116.8775565624237,727,286
116.88916158676147,728,343
116.89640474319458,729,285
116.906973361969,731,342
116.93440508842468,732,286
116.93440508842468,733,342
116.9408905506134,734,286
116.94746851921082,735,339
116.95709419250488,736,288
116.96667146682739,737,337
116.98373222351074,738,287
116.98920631408691,740,335
116.99848222732544,741,287
117.00941443443298,741,334
117.01647019386292,743,288
117.02844166755676,743,333
117.0374825000763,744,288
117.05041694641113,745,331
117.0595178604126,746,290
117.06639003753662,747,330
117.07753229141235,747,288
117.08737707138062,748,329
117.09668135643005,749,290
117.10814261436462,750,326
117.11913919448853,750,291
117.12640500068665,751,326
117.13948798179626,751,290
117.14762210845947,752,323
117.1626181602478,752,291
117.16864728927612,753,321
117.17638111114502,753,291
117.18707489967346,754,319
117.20227766036987,754,293
117.20727705955505,754,318
117.22164130210876,755,294
117.22763800621033,755,317
117.23646593093872,755,292
117.24577951431274,755,314
117.25813865661621,756,294
117.26864767074585,756,312
117.27842307090759,756,294
117.28680562973022,756,311
117.29652714729309,756,293
117.31308817863464,756,310
117.31908845901489,756,295
117.33384585380554,756,307
117.33729696273804,756,297
117.34761095046997,756,307
117.35696578025818,756,296
117.37098431587219,756,305
117.37698340415955,756,296
117.39140939712524,756,302
117.39740920066833,755,298
117.4084575176239,755,302
117.41703152656555,755,300
117.43154716491699,755,298
117.4385449886322,754,300
117.44854736328125,754,297
117.46010375022888,754,302
117.46710228919983,753,294
117.48532891273499,753,303
117.48733282089233,752,293
117.50201296806335,752,304
117.50801587104797,751,291
117.5191445350647,751,306
117.52842855453491,750,288
117.53856158256531,749,309
117.54658961296082,749,284
117.5661039352417,748,309
117.56811356544495,747,284
117.58293271064758,747,311
117.58793354034424,746,281
117.60099005699158,745,311
117.60812520980835,744,279
117.62069463729858,743,311
117.62715244293213,743,277
117.63715720176697,742,315
117.65927863121033,741,274
117.66091704368591,740,316
117.67331099510193,739,271
117.68348598480225,738,316
117.69373297691345,737,268
117.69871759414673,736,318
117.70773339271545,734,266
117.71725225448608,733,318
117.74188780784607,732,261
117.74995017051697,731,321
117.75095677375793,730,259
117.75932908058167,729,322
117.77244877815247,727,256
117.77743077278137,726,321
117.78744101524353,724,251
117.79649519920349,723,323
117.81590104103088,722,251
117.82580924034119,720,322
117.83065342903137,719,247
117.8376669883728,717,322
117.85178470611572,716,247
117.8625431060791,714,323
117.86654376983643,713,244
117.88586616516113,711,325
117.89158296585083,709,242
117.89858818054199,708,325
117.90848112106323,706,243
117.91834688186646,704,324
117.92632579803467,703,244
117.94067811965942,701,325
117.94765901565552,699,246
117.95684766769409,697,325
117.96909499168396,695,247
117.9781084060669,693,326
117.98710918426514,692,248
117.99705910682678,690,327
118.0070595741272,687,249
118.01761078834534,685,328
118.02705931663513,683,250
118.03705024719238,682,328
118.04705739021301,679,251
118.0562973022461,677,330
118.07505321502686,675,252
118.08475089073181,673,329
118.08875393867493,671,253
118.09784173965454,669,329
118.10934710502625,666,255
118.1176290512085,664,329
118.12651348114014,662,258
118.13686728477478,659,330
118.14695048332214,657,258
118.1564109325409,655,330
118.16727304458618,652,261
