esp32_timestamp,server_timestamp,sample_index,ch1,ch2,ch3,ch4,ch5,ch6,ch7,ch8,ch9,ch10,ch11,ch12
1362615,2025-07-10 14:47:54.090,0,402,402,402,402,217,217,217,217,191,191,191,191
1362615,2025-07-10 14:47:54.090,1,402,402,402,402,217,217,217,190,191,191,191,191
1362615,2025-07-10 14:47:54.090,2,111,111,111,111,190,190,190,190,191,191,187,187
1362615,2025-07-10 14:47:54.090,3,111,111,111,111,190,190,190,189,187,187,187,187
1362615,2025-07-10 14:47:54.090,4,1036,1036,1036,1036,189,189,189,189,187,187,187,187
1362615,2025-07-10 14:47:54.090,5,1036,1036,1036,1036,189,189,189,189,194,194,194,194
1362615,2025-07-10 14:47:54.090,6,106,106,106,106,189,189,189,189,194,194,194,194
1362615,2025-07-10 14:47:54.090,7,106,106,106,106,189,189,189,190,194,194,190,190
1362615,2025-07-10 14:47:54.090,8,1050,1050,1050,1050,190,190,190,190,190,190,190,190
1362615,2025-07-10 14:47:54.090,9,1050,1050,1050,1050,190,190,190,188,190,190,190,190
1362615,2025-07-10 14:47:54.090,10,89,89,89,89,188,188,188,188,187,187,187,187
1362615,2025-07-10 14:47:54.090,11,89,89,89,89,188,188,188,192,187,187,187,187
1362615,2025-07-10 14:47:54.090,12,1068,1068,1068,1068,192,192,192,192,187,187,197,197
1362615,2025-07-10 14:47:54.090,13,1068,1068,1068,1068,192,192,192,186,197,197,197,197
1362615,2025-07-10 14:47:54.090,14,68,68,68,68,186,186,186,186,197,197,197,197
1362615,2025-07-10 14:47:54.090,15,68,68,68,68,186,186,186,195,185,185,185,185
1362615,2025-07-10 14:47:54.090,16,1096,1096,1096,1096,195,195,195,195,185,185,185,185
1362615,2025-07-10 14:47:54.090,17,1096,1096,1096,1096,195,195,195,183,185,185,190,190
1362615,2025-07-10 14:47:54.090,18,48,48,48,48,183,183,183,183,190,190,190,190
1362615,2025-07-10 14:47:54.090,19,48,48,48,48,183,183,183,197,190,190,190,190
1362615,2025-07-10 14:47:54.090,20,1116,1116,1116,1116,197,197,197,197,196,196,196,196
1362615,2025-07-10 14:47:54.090,21,1116,1116,1116,1116,197,197,197,181,196,196,196,196
1362615,2025-07-10 14:47:54.090,22,24,24,24,24,181,181,181,181,196,196,184,184
1362615,2025-07-10 14:47:54.090,23,24,24,24,24,181,181,181,199,184,184,184,184
1362615,2025-07-10 14:47:54.090,24,1132,1132,1132,1132,199,199,199,199,184,184,184,192
1362615,2025-07-10 14:47:54.090,25,1132,1132,1132,1132,199,199,199,178,192,192,192,192
1362615,2025-07-10 14:47:54.090,26,4092,4092,4092,4092,178,178,178,178,192,192,192,192
1362615,2025-07-10 14:47:54.090,27,4092,4092,4092,4092,178,178,178,203,192,192,193,193
1362615,2025-07-10 14:47:54.090,28,1163,1163,1163,1163,203,203,203,203,193,193,193,193
1362615,2025-07-10 14:47:54.090,29,1163,1163,1163,1163,203,203,203,176,193,193,193,193
1362615,2025-07-10 14:47:54.090,30,4079,4079,4079,4079,176,176,176,176,185,185,185,185
1362615,2025-07-10 14:47:54.090,31,4079,4079,4079,4079,176,176,176,204,185,185,185,185
1362615,2025-07-10 14:47:54.090,32,1175,1175,1175,1175,204,204,204,204,185,185,195,195
1362615,2025-07-10 14:47:54.090,33,1175,1175,1175,1175,204,204,204,175,195,195,195,195
1362615,2025-07-10 14:47:54.090,34,4064,4064,4064,4064,175,175,175,175,195,195,195,195
1362615,2025-07-10 14:47:54.090,35,4064,4064,4064,4064,175,175,175,206,186,186,186,186
1362615,2025-07-10 14:47:54.090,36,1193,1193,1193,1193,206,206,206,206,186,186,186,186
1362615,2025-07-10 14:47:54.090,37,1193,1193,1193,1193,206,206,206,172,186,186,189,189
1362615,2025-07-10 14:47:54.090,38,4041,4041,4041,4041,172,172,172,172,189,189,189,189
1362615,2025-07-10 14:47:54.090,39,4041,4041,4041,4041,172,172,172,208,189,189,189,189
1362615,2025-07-10 14:47:54.090,40,1212,1212,1212,1212,208,208,208,208,197,197,197,197
1362615,2025-07-10 14:47:54.090,41,1212,1212,1212,1212,208,208,208,170,197,197,197,197
1362615,2025-07-10 14:47:54.090,42,4031,4031,4031,4031,170,170,170,170,197,197,184,184
1362615,2025-07-10 14:47:54.090,43,4031,4031,4031,4031,170,170,170,210,184,184,184,184
1362615,2025-07-10 14:47:54.090,44,1220,1220,1220,1220,210,210,210,210,184,184,184,184
1362615,2025-07-10 14:47:54.090,45,1220,1220,1220,1220,210,210,210,168,191,191,191,191
1362615,2025-07-10 14:47:54.090,46,4023,4023,4023,4023,168,168,168,168,191,191,191,191
1362615,2025-07-10 14:47:54.090,47,4023,4023,4023,4023,168,168,168,211,191,191,195,195
1362615,2025-07-10 14:47:54.090,48,1223,1223,1223,1223,211,211,211,211,195,195,195,195
1362615,2025-07-10 14:47:54.090,49,1223,1223,1223,1223,211,211,211,168,195,195,195,195
1362615,2025-07-10 14:47:54.090,50,4022,4022,4022,4022,168,168,168,168,183,183,183,183
1362615,2025-07-10 14:47:54.090,51,4022,4022,4022,4022,168,168,168,212,183,183,183,183
1362615,2025-07-10 14:47:54.090,52,1225,1225,1225,1225,212,212,212,212,183,183,195,195
1362615,2025-07-10 14:47:54.090,53,1225,1225,1225,1225,212,212,212,167,195,195,195,195
1362615,2025-07-10 14:47:54.090,54,4019,4019,4019,4019,167,167,167,167,195,195,195,195
1362615,2025-07-10 14:47:54.090,55,4019,4019,4019,4019,167,167,167,214,186,186,186,186
1362615,2025-07-10 14:47:54.090,56,1228,1228,1228,1228,214,214,214,214,186,186,186,186
1362615,2025-07-10 14:47:54.090,57,1228,1228,1228,1228,214,214,214,165,186,186,188,188
1362615,2025-07-10 14:47:54.090,58,4019,4019,4019,4019,165,165,165,165,188,188,188,188
1362615,2025-07-10 14:47:54.090,59,4019,4019,4019,4019,165,165,165,215,188,188,188,188
1362615,2025-07-10 14:47:54.090,60,1226,1226,1226,1226,215,215,215,215,198,198,198,198
1362615,2025-07-10 14:47:54.090,61,1226,1226,1226,1226,215,215,215,163,198,198,198,198
1362615,2025-07-10 14:47:54.090,62,4029,4029,4029,4029,163,163,163,163,198,198,185,185
1362615,2025-07-10 14:47:54.090,63,4029,4029,4029,4029,163,163,163,217,185,185,185,185
1362615,2025-07-10 14:47:54.090,64,1216,1216,1216,1216,217,217,217,217,185,185,185,185
1362615,2025-07-10 14:47:54.090,65,1216,1216,1216,1216,217,217,217,161,191,191,191,191
1362615,2025-07-10 14:47:54.090,66,4042,4042,4042,4042,161,161,161,161,191,191,191,191
1362615,2025-07-10 14:47:54.090,67,4042,4042,4042,4042,161,161,161,219,191,191,196,196
1362615,2025-07-10 14:47:54.090,68,1202,1202,1202,1202,219,219,219,219,196,196,196,196
1362615,2025-07-10 14:47:54.090,69,1202,1202,1202,1202,219,219,219,160,196,196,196,196
1362615,2025-07-10 14:47:54.090,70,4058,4058,4058,4058,160,160,160,160,183,183,183,183
1362615,2025-07-10 14:47:54.090,71,4058,4058,4058,4058,160,160,160,220,183,183,183,183
1362615,2025-07-10 14:47:54.090,72,1194,1194,1194,1194,220,220,220,220,183,183,193,193
1362615,2025-07-10 14:47:54.090,73,1194,1194,1194,1194,220,220,220,158,193,193,193,193
1362615,2025-07-10 14:47:54.090,74,4064,4064,4064,4064,158,158,158,158,193,193,193,193
1362615,2025-07-10 14:47:54.090,75,4064,4064,4064,4064,158,158,158,221,189,189,189,189
1362615,2025-07-10 14:47:54.090,76,1184,1184,1184,1184,221,221,221,221,189,189,189,189
1362615,2025-07-10 14:47:54.090,77,1184,1184,1184,1184,221,221,221,157,189,189,186,186
1362615,2025-07-10 14:47:54.090,78,4079,4079,4079,4079,157,157,157,157,186,186,186,186
1362615,2025-07-10 14:47:54.090,79,4079,4079,4079,4079,157,157,157,222,186,186,186,186
1362615,2025-07-10 14:47:54.090,80,1168,1168,1168,1168,222,222,222,222,198,198,198,198
1362615,2025-07-10 14:47:54.090,81,1168,1168,1168,1168,222,222,222,156,198,198,198,198
1362615,2025-07-10 14:47:54.090,82,1,1,1,1,156,156,156,156,198,198,186,186
1362615,2025-07-10 14:47:54.090,83,1,1,1,1,156,156,156,223,186,186,186,186
1362615,2025-07-10 14:47:54.090,84,1142,1142,1142,1142,223,223,223,223,186,186,186,186
1362615,2025-07-10 14:47:54.090,85,1142,1142,1142,1142,223,223,223,155,190,190,190,190
1362615,2025-07-10 14:47:54.090,86,26,26,26,26,155,155,155,155,190,190,190,190
1362615,2025-07-10 14:47:54.090,87,26,26,26,26,155,155,155,224,190,190,196,196
1362615,2025-07-10 14:47:54.090,88,1129,1129,1129,1129,224,224,224,224,196,196,196,196
1362615,2025-07-10 14:47:54.090,89,1129,1129,1129,1129,224,224,224,154,196,196,196,196
1362615,2025-07-10 14:47:54.090,90,37,37,37,37,154,154,154,154,183,183,183,183
1362615,2025-07-10 14:47:54.090,91,37,37,37,37,154,154,154,225,183,183,183,183
1362615,2025-07-10 14:47:54.090,92,1106,1106,1106,1106,225,225,225,225,183,183,192,192
1362615,2025-07-10 14:47:54.090,93,1106,1106,1106,1106,225,225,225,153,192,192,192,192
1362615,2025-07-10 14:47:54.090,94,53,53,53,53,153,153,153,153,192,192,192,192
1362615,2025-07-10 14:47:54.090,95,53,53,53,53,153,153,153,225,190,190,190,190
1362615,2025-07-10 14:47:54.090,96,1090,1090,1090,1090,225,225,225,225,190,190,190,190
1362615,2025-07-10 14:47:54.090,97,1090,1090,1090,1090,225,225,225,152,190,190,185,185
1362615,2025-07-10 14:47:54.090,98,69,69,69,69,152,152,152,152,185,185,185,185
1362615,2025-07-10 14:47:54.090,99,69,69,69,69,152,152,152,226,185,185,185,185
1362615,2025-07-10 14:47:54.090,100,1077,1077,1077,1077,226,226,226,226,197,197,197,197
1362615,2025-07-10 14:47:54.090,101,1077,1077,1077,1077,226,226,226,152,197,197,197,197
1362615,2025-07-10 14:47:54.090,102,78,78,78,78,152,152,152,152,197,197,186,186
1362615,2025-07-10 14:47:54.090,103,78,78,78,78,152,152,152,226,186,186,186,186
1362615,2025-07-10 14:47:54.090,104,1067,1067,1067,1067,226,226,226,226,186,186,186,186
1362615,2025-07-10 14:47:54.090,105,1067,1067,1067,1067,226,226,226,151,190,190,190,190
1362615,2025-07-10 14:47:54.090,106,90,90,90,90,151,151,151,151,190,190,190,190
1362615,2025-07-10 14:47:54.090,107,90,90,90,90,151,151,151,226,190,190,197,197
1362615,2025-07-10 14:47:54.090,108,1057,1057,1057,1057,226,226,226,226,197,197,197,197
1362615,2025-07-10 14:47:54.090,109,1057,1057,1057,1057,226,226,226,151,197,197,197,197
1362615,2025-07-10 14:47:54.090,110,104,104,104,104,151,151,151,151,183,183,183,183
1362615,2025-07-10 14:47:54.090,111,104,104,104,104,151,151,151,227,183,183,183,183
1362615,2025-07-10 14:47:54.090,112,1035,1035,1035,1035,227,227,227,227,183,183,192,192
1362615,2025-07-10 14:47:54.090,113,1035,1035,1035,1035,227,227,227,150,192,192,192,192
1362615,2025-07-10 14:47:54.090,114,126,126,126,126,150,150,150,150,192,192,192,192
1362615,2025-07-10 14:47:54.090,115,126,126,126,126,150,150,150,228,192,192,192,192
1362615,2025-07-10 14:47:54.090,116,1011,1011,1011,1011,228,228,228,228,192,192,192,192
1362615,2025-07-10 14:47:54.090,117,1011,1011,1011,1011,228,228,228,149,192,192,184,184
1362615,2025-07-10 14:47:54.090,118,157,157,157,157,149,149,149,149,184,184,184,184
1362615,2025-07-10 14:47:54.090,119,157,157,157,157,149,149,149,228,184,184,184,184
1362615,2025-07-10 14:47:54.090,120,985,985,985,985,228,228,228,228,196,196,196,196
1362615,2025-07-10 14:47:54.090,121,985,985,985,985,228,228,228,148,196,196,196,196
1362615,2025-07-10 14:47:54.090,122,177,177,177,177,148,148,148,148,196,196,188,188
1362615,2025-07-10 14:47:54.090,123,177,177,177,177,148,148,148,229,188,188,188,188
1362615,2025-07-10 14:47:54.090,124,968,968,968,968,229,229,229,229,188,188,188,188
1362615,2025-07-10 14:47:54.090,125,968,968,968,968,229,229,229,148,189,189,189,189
1362615,2025-07-10 14:47:54.090,126,194,194,194,194,148,148,148,148,189,189,189,189
1362615,2025-07-10 14:47:54.090,127,194,194,194,194,148,148,148,230,189,189,197,197
1362615,2025-07-10 14:47:54.090,128,947,947,947,947,230,230,230,230,197,197,197,197
1362615,2025-07-10 14:47:54.090,129,947,947,947,947,230,230,230,147,197,197,197,197
1362615,2025-07-10 14:47:54.090,130,213,213,213,213,147,147,147,147,183,183,183,183
1362615,2025-07-10 14:47:54.090,131,213,213,213,213,147,147,147,229,183,183,183,183
1362615,2025-07-10 14:47:54.090,132,928,928,928,928,229,229,229,229,183,183,191,191
1362615,2025-07-10 14:47:54.090,133,928,928,928,928,229,229,229,148,191,191,191,191
1362615,2025-07-10 14:47:54.090,134,235,235,235,235,148,148,148,148,191,191,191,191
1362615,2025-07-10 14:47:54.090,135,235,235,235,235,148,148,148,229,194,194,194,194
1362615,2025-07-10 14:47:54.090,136,907,907,907,907,229,229,229,229,194,194,194,194
1362615,2025-07-10 14:47:54.090,137,907,907,907,907,229,229,229,148,194,194,184,184
1362615,2025-07-10 14:47:54.090,138,259,259,259,259,148,148,148,148,184,184,184,184
1362615,2025-07-10 14:47:54.090,139,259,259,259,259,148,148,148,230,184,184,184,184
1362615,2025-07-10 14:47:54.090,140,877,877,877,877,230,230,230,230,195,195,195,195
1362615,2025-07-10 14:47:54.090,141,877,877,877,877,230,230,230,147,195,195,195,195
1362615,2025-07-10 14:47:54.090,142,285,285,285,285,147,147,147,147,195,195,189,189
1362615,2025-07-10 14:47:54.090,143,285,285,285,285,147,147,147,230,189,189,189,189
1362615,2025-07-10 14:47:54.090,144,852,852,852,852,230,230,230,230,189,189,189,189
1362615,2025-07-10 14:47:54.090,145,852,852,852,852,230,230,230,148,187,187,187,187
1362615,2025-07-10 14:47:54.090,146,307,307,307,307,148,148,148,148,187,187,187,187
1362615,2025-07-10 14:47:54.090,147,307,307,307,307,148,148,148,230,187,187,197,197
1362615,2025-07-10 14:47:54.090,148,833,833,833,833,230,230,230,230,197,197,197,197
1362615,2025-07-10 14:47:54.090,149,833,833,833,833,230,230,230,147,197,197,197,197
1362615,2025-07-10 14:47:54.090,150,320,320,320,320,147,147,147,147,185,185,185,185
1362615,2025-07-10 14:47:54.090,151,320,320,320,320,147,147,147,230,185,185,185,185
1362615,2025-07-10 14:47:54.090,152,823,823,823,823,230,230,230,230,185,185,190,190
1362615,2025-07-10 14:47:54.090,153,823,823,823,823,230,230,230,147,190,190,190,190
1362615,2025-07-10 14:47:54.090,154,332,332,332,332,147,147,147,147,190,190,190,190
1362615,2025-07-10 14:47:54.090,155,332,332,332,332,147,147,147,230,195,195,195,195
1362615,2025-07-10 14:47:54.090,156,807,807,807,807,230,230,230,230,195,195,195,195
1362615,2025-07-10 14:47:54.090,157,807,807,807,807,230,230,230,148,195,195,184,184
1362615,2025-07-10 14:47:54.090,158,351,351,351,351,148,148,148,148,184,184,184,184
1362615,2025-07-10 14:47:54.090,159,351,351,351,351,148,148,148,230,184,184,184,184
1362615,2025-07-10 14:47:54.090,160,781,781,781,781,230,230,230,230,193,193,193,193
1362615,2025-07-10 14:47:54.090,161,781,781,781,781,230,230,230,148,193,193,193,193
1362615,2025-07-10 14:47:54.090,162,376,376,376,376,148,148,148,148,193,193,191,191
1362615,2025-07-10 14:47:54.090,163,376,376,376,376,148,148,148,230,191,191,191,191
1362615,2025-07-10 14:47:54.090,164,756,756,756,756,230,230,230,230,191,191,191,191
1362615,2025-07-10 14:47:54.090,165,756,756,756,756,230,230,230,148,185,185,185,185
1362615,2025-07-10 14:47:54.090,166,403,403,403,403,148,148,148,148,185,185,185,185
1362615,2025-07-10 14:47:54.090,167,403,403,403,403,148,148,148,230,185,185,196,196
1362615,2025-07-10 14:47:54.090,168,719,719,719,719,230,230,230,230,196,196,196,196
1362615,2025-07-10 14:47:54.090,169,719,719,719,719,230,230,230,149,196,196,196,196
1362615,2025-07-10 14:47:54.090,170,431,431,431,431,149,149,149,149,185,185,185,185
1362615,2025-07-10 14:47:54.090,171,431,431,431,431,149,149,149,230,185,185,185,185
1362615,2025-07-10 14:47:54.090,172,704,704,704,704,230,230,230,230,185,185,189,189
1362615,2025-07-10 14:47:54.090,173,704,704,704,704,230,230,230,149,189,189,189,189
1362615,2025-07-10 14:47:54.090,174,446,446,446,446,149,149,149,149,189,189,189,189
1362615,2025-07-10 14:47:54.090,175,446,446,446,446,149,149,149,230,196,196,196,196
1362615,2025-07-10 14:47:54.090,176,696,696,696,696,230,230,230,230,196,196,196,196
1362615,2025-07-10 14:47:54.090,177,696,696,696,696,230,230,230,149,196,196,185,185
1362615,2025-07-10 14:47:54.090,178,455,455,455,455,149,149,149,149,185,185,185,185
1362615,2025-07-10 14:47:54.090,179,455,455,455,455,149,149,149,229,185,185,185,185
1362615,2025-07-10 14:47:54.090,180,681,681,681,681,229,229,229,229,192,192,192,192
1362615,2025-07-10 14:47:54.090,181,681,681,681,681,229,229,229,150,192,192,192,192
1362615,2025-07-10 14:47:54.090,182,479,479,479,479,150,150,150,150,192,192,193,193
1362615,2025-07-10 14:47:54.090,183,479,479,479,479,150,150,150,229,193,193,193,193
1362615,2025-07-10 14:47:54.090,184,654,654,654,654,229,229,229,229,193,193,193,193
1362615,2025-07-10 14:47:54.090,185,654,654,654,654,229,229,229,150,183,183,183,183
1362615,2025-07-10 14:47:54.090,186,500,500,500,500,150,150,150,150,183,183,183,183
1362615,2025-07-10 14:47:54.090,187,500,500,500,500,150,150,150,229,183,183,195,195
1362615,2025-07-10 14:47:54.090,188,632,632,632,632,229,229,229,229,195,195,195,195
1362615,2025-07-10 14:47:54.090,189,632,632,632,632,229,229,229,150,195,195,195,195
1362615,2025-07-10 14:47:54.090,190,524,524,524,524,150,150,150,150,186,186,186,186
1362615,2025-07-10 14:47:54.090,191,524,524,524,524,150,150,150,229,186,186,186,186
1362615,2025-07-10 14:47:54.090,192,615,615,615,615,229,229,229,229,186,186,189,189
1362615,2025-07-10 14:47:54.090,193,615,615,615,615,229,229,229,151,189,189,189,189
1362615,2025-07-10 14:47:54.090,194,544,544,544,544,151,151,151,151,189,189,189,189
1362615,2025-07-10 14:47:54.090,195,544,544,544,544,151,151,151,228,197,197,197,197
1362615,2025-07-10 14:47:54.090,196,594,594,594,594,228,228,228,228,197,197,197,197
1362615,2025-07-10 14:47:54.090,197,594,594,594,594,228,228,228,152,197,197,185,185
1362615,2025-07-10 14:47:54.090,198,563,563,563,563,152,152,152,152,185,185,185,185
1362615,2025-07-10 14:47:54.090,199,563,563,563,563,152,152,152,229,185,185,185,185
1363644,2025-07-10 14:47:55.091,0,582,582,582,582,229,229,229,229,191,191,191,191
1363644,2025-07-10 14:47:55.091,1,582,582,582,582,229,229,229,226,191,191,191,191
1363644,2025-07-10 14:47:55.091,2,605,605,605,605,226,226,226,226,191,191,189,189
1363644,2025-07-10 14:47:55.091,3,605,605,605,605,226,226,226,152,189,189,189,189
1363644,2025-07-10 14:47:55.091,4,541,541,541,541,152,152,152,152,189,189,189,189
1363644,2025-07-10 14:47:55.091,5,541,541,541,541,152,152,152,229,198,198,198,198
1363644,2025-07-10 14:47:55.091,6,605,605,605,605,229,229,229,229,198,198,198,198
1363644,2025-07-10 14:47:55.091,7,605,605,605,605,229,229,229,152,198,198,185,185
1363644,2025-07-10 14:47:55.091,8,556,556,556,556,152,152,152,152,185,185,185,185
1363644,2025-07-10 14:47:55.091,9,556,556,556,556,152,152,152,228,185,185,185,185
1363644,2025-07-10 14:47:55.091,10,576,576,576,576,228,228,228,228,191,191,191,191
1363644,2025-07-10 14:47:55.091,11,576,576,576,576,228,228,228,152,191,191,191,191
1363644,2025-07-10 14:47:55.091,12,598,598,598,598,152,152,152,152,191,191,195,195
1363644,2025-07-10 14:47:55.091,13,598,598,598,598,152,152,152,228,195,195,195,195
1363644,2025-07-10 14:47:55.091,14,553,553,553,553,228,228,228,228,195,195,195,195
1363644,2025-07-10 14:47:55.091,15,553,553,553,553,228,228,228,154,182,182,182,182
1363644,2025-07-10 14:47:55.091,16,607,607,607,607,154,154,154,154,182,182,182,182
1363644,2025-07-10 14:47:55.091,17,607,607,607,607,154,154,154,226,182,182,194,194
1363644,2025-07-10 14:47:55.091,18,527,527,527,527,226,226,226,226,194,194,194,194
1363644,2025-07-10 14:47:55.091,19,527,527,527,527,226,226,226,155,194,194,194,194
1363644,2025-07-10 14:47:55.091,20,635,635,635,635,155,155,155,155,187,187,187,187
1363644,2025-07-10 14:47:55.091,21,635,635,635,635,155,155,155,225,187,187,187,187
1363644,2025-07-10 14:47:55.091,22,507,507,507,507,225,225,225,225,187,187,187,187
1363644,2025-07-10 14:47:55.091,23,507,507,507,507,225,225,225,156,187,187,187,187
1363644,2025-07-10 14:47:55.091,24,659,659,659,659,156,156,156,156,187,187,187,187
1363644,2025-07-10 14:47:55.091,25,659,659,659,659,156,156,156,223,198,198,198,198
1363644,2025-07-10 14:47:55.091,26,480,480,480,480,223,223,223,223,198,198,198,198
1363644,2025-07-10 14:47:55.091,27,480,480,480,480,223,223,223,158,198,198,185,185
1363644,2025-07-10 14:47:55.091,28,689,689,689,689,158,158,158,158,185,185,185,185
1363644,2025-07-10 14:47:55.091,29,689,689,689,689,158,158,158,222,185,185,185,185
1363644,2025-07-10 14:47:55.091,30,456,456,456,456,222,222,222,222,191,191,191,191
1363644,2025-07-10 14:47:55.091,31,456,456,456,456,222,222,222,159,191,191,191,191
1363644,2025-07-10 14:47:55.091,32,699,699,699,699,159,159,159,159,191,191,196,196
1363644,2025-07-10 14:47:55.091,33,699,699,699,699,159,159,159,220,196,196,196,196
1363644,2025-07-10 14:47:55.091,34,440,440,440,440,220,220,220,220,196,196,196,196
1363644,2025-07-10 14:47:55.091,35,440,440,440,440,220,220,220,160,183,183,183,183
1363644,2025-07-10 14:47:55.091,36,720,720,720,720,160,160,160,160,183,183,183,183
1363644,2025-07-10 14:47:55.091,37,720,720,720,720,160,160,160,218,183,183,193,193
1363644,2025-07-10 14:47:55.091,38,417,417,417,417,218,218,218,218,193,193,193,193
1363644,2025-07-10 14:47:55.091,39,417,417,417,417,218,218,218,161,193,193,193,193
1363644,2025-07-10 14:47:55.091,40,744,744,744,744,161,161,161,161,190,190,190,190
1363644,2025-07-10 14:47:55.091,41,744,744,744,744,161,161,161,216,190,190,190,190
1363644,2025-07-10 14:47:55.091,42,389,389,389,389,216,216,216,216,190,190,185,185
1363644,2025-07-10 14:47:55.091,43,389,389,389,389,216,216,216,164,185,185,185,185
1363644,2025-07-10 14:47:55.091,44,773,773,773,773,164,164,164,164,185,185,185,185
1363644,2025-07-10 14:47:55.091,45,773,773,773,773,164,164,164,214,197,197,197,197
1363644,2025-07-10 14:47:55.091,46,362,362,362,362,214,214,214,214,197,197,197,197
1363644,2025-07-10 14:47:55.091,47,362,362,362,362,214,214,214,165,197,197,186,186
1363644,2025-07-10 14:47:55.091,48,797,797,797,797,165,165,165,165,186,186,186,186
1363644,2025-07-10 14:47:55.091,49,797,797,797,797,165,165,165,212,186,186,186,186
1363644,2025-07-10 14:47:55.091,50,344,344,344,344,212,212,212,212,190,190,190,190
1363644,2025-07-10 14:47:55.091,51,344,344,344,344,212,212,212,166,190,190,190,190
1363644,2025-07-10 14:47:55.091,52,807,807,807,807,166,166,166,166,190,190,196,196
1363644,2025-07-10 14:47:55.091,53,807,807,807,807,166,166,166,210,196,196,196,196
1363644,2025-07-10 14:47:55.091,54,335,335,335,335,210,210,210,210,196,196,196,196
1363644,2025-07-10 14:47:55.091,55,335,335,335,335,210,210,210,167,183,183,183,183
1363644,2025-07-10 14:47:55.091,56,818,818,818,818,167,167,167,167,183,183,183,183
1363644,2025-07-10 14:47:55.091,57,818,818,818,818,167,167,167,210,183,183,192,192
1363644,2025-07-10 14:47:55.091,58,321,321,321,321,210,210,210,210,192,192,192,192
1363644,2025-07-10 14:47:55.091,59,321,321,321,321,210,210,210,169,192,192,192,192
1363644,2025-07-10 14:47:55.091,60,835,835,835,835,169,169,169,169,192,192,192,192
1363644,2025-07-10 14:47:55.091,61,835,835,835,835,169,169,169,207,192,192,192,192
1363644,2025-07-10 14:47:55.091,62,298,298,298,298,207,207,207,207,192,192,184,184
1363644,2025-07-10 14:47:55.091,63,298,298,298,298,207,207,207,171,184,184,184,184
1363644,2025-07-10 14:47:55.091,64,859,859,859,859,171,171,171,171,184,184,184,184
1363644,2025-07-10 14:47:55.091,65,859,859,859,859,171,171,171,205,196,196,196,196
1363644,2025-07-10 14:47:55.091,66,269,269,269,269,205,205,205,205,196,196,196,196
1363644,2025-07-10 14:47:55.091,67,269,269,269,269,205,205,205,174,196,196,187,187
1363644,2025-07-10 14:47:55.091,68,884,884,884,884,174,174,174,174,187,187,187,187
1363644,2025-07-10 14:47:55.091,69,884,884,884,884,174,174,174,203,187,187,187,187
1363644,2025-07-10 14:47:55.091,70,248,248,248,248,203,203,203,203,189,189,189,189
1363644,2025-07-10 14:47:55.091,71,248,248,248,248,203,203,203,176,189,189,189,189
1363644,2025-07-10 14:47:55.091,72,908,908,908,908,176,176,176,176,189,189,197,197
1363644,2025-07-10 14:47:55.091,73,908,908,908,908,176,176,176,201,197,197,197,197
1363644,2025-07-10 14:47:55.091,74,228,228,228,228,201,201,201,201,197,197,197,197
1363644,2025-07-10 14:47:55.091,75,228,228,228,228,201,201,201,178,183,183,183,183
1363644,2025-07-10 14:47:55.091,76,917,917,917,917,178,178,178,178,183,183,183,183
1363644,2025-07-10 14:47:55.091,77,917,917,917,917,178,178,178,200,183,183,191,191
1363644,2025-07-10 14:47:55.091,78,217,217,217,217,200,200,200,200,191,191,191,191
1363644,2025-07-10 14:47:55.091,79,217,217,217,217,200,200,200,179,191,191,191,191
1363644,2025-07-10 14:47:55.091,80,930,930,930,930,179,179,179,179,193,193,193,193
1363644,2025-07-10 14:47:55.091,81,930,930,930,930,179,179,179,199,193,193,193,193
1363644,2025-07-10 14:47:55.091,82,208,208,208,208,199,199,199,199,193,193,184,184
1363644,2025-07-10 14:47:55.091,83,208,208,208,208,199,199,199,181,184,184,184,184
1363644,2025-07-10 14:47:55.091,84,948,948,948,948,181,181,181,181,184,184,184,184
1363644,2025-07-10 14:47:55.091,85,948,948,948,948,181,181,181,196,195,195,195,195
1363644,2025-07-10 14:47:55.091,86,185,185,185,185,196,196,196,196,195,195,195,195
1363644,2025-07-10 14:47:55.091,87,987,987,987,987,185,185,185,185,189,189,189,189
1363644,2025-07-10 14:47:55.091,88,987,987,987,987,185,185,185,185,189,189,189,189
1363644,2025-07-10 14:47:55.091,89,371,371,371,371,151,151,151,151,189,189,190,190
1363644,2025-07-10 14:47:55.091,90,371,371,371,371,151,151,151,230,190,190,190,190
1363644,2025-07-10 14:47:55.091,91,810,810,810,810,230,230,230,230,190,190,190,190
1363644,2025-07-10 14:47:55.091,92,810,810,810,810,230,230,230,148,183,183,183,183
1363644,2025-07-10 14:47:55.091,93,344,344,344,344,148,148,148,148,183,183,183,183
1363644,2025-07-10 14:47:55.091,94,344,344,344,344,148,148,148,230,183,183,197,197
1363644,2025-07-10 14:47:55.091,95,800,800,800,800,230,230,230,230,197,197,197,197
1363644,2025-07-10 14:47:55.091,96,800,800,800,800,230,230,230,148,197,197,197,197
1363644,2025-07-10 14:47:55.091,97,353,353,353,353,148,148,148,148,185,185,185,185
1363644,2025-07-10 14:47:55.091,98,353,353,353,353,148,148,148,230,185,185,185,185
1363644,2025-07-10 14:47:55.091,99,789,789,789,789,230,230,230,230,185,185,190,190
1363644,2025-07-10 14:47:55.091,100,789,789,789,789,230,230,230,148,190,190,190,190
1363644,2025-07-10 14:47:55.091,101,374,374,374,374,148,148,148,148,190,190,190,190
1363644,2025-07-10 14:47:55.091,102,374,374,374,374,148,148,148,230,196,196,196,196
1363644,2025-07-10 14:47:55.091,103,766,766,766,766,230,230,230,230,196,196,196,196
1363644,2025-07-10 14:47:55.091,104,766,766,766,766,230,230,230,148,196,196,184,184
1363644,2025-07-10 14:47:55.091,105,404,404,404,404,148,148,148,148,184,184,184,184
1363644,2025-07-10 14:47:55.091,106,404,404,404,404,148,148,148,230,184,184,184,184
1363644,2025-07-10 14:47:55.091,107,731,731,731,731,230,230,230,230,192,192,192,192
1363644,2025-07-10 14:47:55.091,108,731,731,731,731,230,230,230,149,192,192,192,192
1363644,2025-07-10 14:47:55.091,109,431,431,431,431,149,149,149,149,192,192,193,193
1363644,2025-07-10 14:47:55.091,110,431,431,431,431,149,149,149,229,193,193,193,193
1363644,2025-07-10 14:47:55.091,111,706,706,706,706,229,229,229,229,193,193,193,193
1363644,2025-07-10 14:47:55.091,112,706,706,706,706,229,229,229,150,185,185,185,185
1363644,2025-07-10 14:47:55.091,113,454,454,454,454,150,150,150,150,185,185,185,185
1363644,2025-07-10 14:47:55.091,114,454,454,454,454,150,150,150,230,185,185,195,195
1363644,2025-07-10 14:47:55.091,115,693,693,693,693,230,230,230,230,195,195,195,195
1363644,2025-07-10 14:47:55.091,116,693,693,693,693,230,230,230,150,195,195,195,195
1363644,2025-07-10 14:47:55.091,117,463,463,463,463,150,150,150,150,186,186,186,186
1363644,2025-07-10 14:47:55.091,118,463,463,463,463,150,150,150,229,186,186,186,186
1363644,2025-07-10 14:47:55.091,119,677,677,677,677,229,229,229,229,186,186,189,189
1363644,2025-07-10 14:47:55.091,120,677,677,677,677,229,229,229,150,189,189,189,189
1363644,2025-07-10 14:47:55.091,121,481,481,481,481,150,150,150,150,189,189,189,189
1363644,2025-07-10 14:47:55.091,122,481,481,481,481,150,150,150,229,197,197,197,197
1363644,2025-07-10 14:47:55.091,123,655,655,655,655,229,229,229,229,197,197,197,197
1363644,2025-07-10 14:47:55.091,124,655,655,655,655,229,229,229,150,197,197,184,184
1363644,2025-07-10 14:47:55.091,125,502,502,502,502,150,150,150,150,184,184,184,184
1363644,2025-07-10 14:47:55.091,126,502,502,502,502,150,150,150,229,184,184,184,184
1363644,2025-07-10 14:47:55.091,127,638,638,638,638,229,229,229,229,191,191,191,191
1363644,2025-07-10 14:47:55.091,128,638,638,638,638,229,229,229,151,191,191,191,191
1363644,2025-07-10 14:47:55.091,129,519,519,519,519,151,151,151,151,191,191,194,194
1363644,2025-07-10 14:47:55.091,130,519,519,519,519,151,151,151,229,194,194,194,194
1363644,2025-07-10 14:47:55.091,131,612,612,612,612,229,229,229,229,194,194,194,194
1363644,2025-07-10 14:47:55.091,132,612,612,612,612,229,229,229,152,183,183,183,183
1363644,2025-07-10 14:47:55.091,133,549,549,549,549,152,152,152,152,183,183,183,183
1363644,2025-07-10 14:47:55.091,134,549,549,549,549,152,152,152,228,183,183,195,195
1363644,2025-07-10 14:47:55.091,135,583,583,583,583,228,228,228,228,195,195,195,195
1363644,2025-07-10 14:47:55.091,136,583,583,583,583,228,228,228,152,195,195,195,195
1363644,2025-07-10 14:47:55.091,137,568,568,568,568,152,152,152,152,187,187,187,187
1363644,2025-07-10 14:47:55.091,138,568,568,568,568,152,152,152,228,187,187,187,187
1363644,2025-07-10 14:47:55.091,139,569,569,569,569,228,228,228,228,187,187,188,188
1363644,2025-07-10 14:47:55.091,140,569,569,569,569,228,228,228,153,188,188,188,188
1363644,2025-07-10 14:47:55.091,141,586,586,586,586,153,153,153,153,188,188,188,188
1363644,2025-07-10 14:47:55.091,142,586,586,586,586,153,153,153,227,198,198,198,198
1363644,2025-07-10 14:47:55.091,143,552,552,552,552,227,227,227,227,198,198,198,198
1363644,2025-07-10 14:47:55.091,144,552,552,552,552,227,227,227,154,198,198,184,184
1363644,2025-07-10 14:47:55.091,145,596,596,596,596,154,154,154,154,184,184,184,184
1363644,2025-07-10 14:47:55.091,146,596,596,596,596,154,154,154,226,184,184,184,184
1363644,2025-07-10 14:47:55.091,147,537,537,537,537,226,226,226,226,191,191,191,191
1363644,2025-07-10 14:47:55.091,148,537,537,537,537,226,226,226,154,191,191,191,191
1363644,2025-07-10 14:47:55.091,149,613,613,613,613,154,154,154,154,191,191,195,195
1363644,2025-07-10 14:47:55.091,150,613,613,613,613,154,154,154,227,195,195,195,195
1363644,2025-07-10 14:47:55.091,151,526,526,526,526,227,227,227,227,195,195,195,195
1363644,2025-07-10 14:47:55.091,152,526,526,526,526,227,227,227,155,183,183,183,183
1363644,2025-07-10 14:47:55.091,153,638,638,638,638,155,155,155,155,183,183,183,183
1363644,2025-07-10 14:47:55.091,154,638,638,638,638,155,155,155,224,183,183,194,194
1363644,2025-07-10 14:47:55.091,155,497,497,497,497,224,224,224,224,194,194,194,194
1363644,2025-07-10 14:47:55.091,156,497,497,497,497,224,224,224,157,194,194,194,194
1363644,2025-07-10 14:47:55.091,157,665,665,665,665,157,157,157,157,188,188,188,188
1363644,2025-07-10 14:47:55.091,158,665,665,665,665,157,157,157,222,188,188,188,188
1363644,2025-07-10 14:47:55.091,159,471,471,471,471,222,222,222,222,188,188,187,187
1363644,2025-07-10 14:47:55.091,160,471,471,471,471,222,222,222,158,187,187,187,187
1363644,2025-07-10 14:47:55.091,161,689,689,689,689,158,158,158,158,187,187,187,187
1363644,2025-07-10 14:47:55.091,162,689,689,689,689,158,158,158,221,198,198,198,198
1363644,2025-07-10 14:47:55.091,163,449,449,449,449,221,221,221,221,198,198,198,198
1363644,2025-07-10 14:47:55.091,164,449,449,449,449,221,221,221,159,198,198,185,185
1363644,2025-07-10 14:47:55.091,165,702,702,702,702,159,159,159,159,185,185,185,185
1363644,2025-07-10 14:47:55.091,166,702,702,702,702,159,159,159,219,185,185,185,185
1363644,2025-07-10 14:47:55.091,167,433,433,433,433,219,219,219,219,190,190,190,190
1363644,2025-07-10 14:47:55.091,168,433,433,433,433,219,219,219,161,190,190,190,190
1363644,2025-07-10 14:47:55.091,169,727,727,727,727,161,161,161,161,190,190,196,196
1363644,2025-07-10 14:47:55.091,170,727,727,727,727,161,161,161,217,196,196,196,196
1363644,2025-07-10 14:47:55.091,171,414,414,414,414,217,217,217,217,196,196,196,196
1363644,2025-07-10 14:47:55.091,172,414,414,414,414,217,217,217,162,183,183,183,183
1363644,2025-07-10 14:47:55.091,173,742,742,742,742,162,162,162,162,183,183,183,183
1363644,2025-07-10 14:47:55.091,174,742,742,742,742,162,162,162,216,183,183,192,192
1363644,2025-07-10 14:47:55.091,175,392,392,392,392,216,216,216,216,192,192,192,192
1363644,2025-07-10 14:47:55.091,176,392,392,392,392,216,216,216,163,192,192,192,192
1363644,2025-07-10 14:47:55.091,177,765,765,765,765,163,163,163,163,190,190,190,190
1363644,2025-07-10 14:47:55.091,178,765,765,765,765,163,163,163,213,190,190,190,190
1363644,2025-07-10 14:47:55.091,179,362,362,362,362,213,213,213,213,190,190,185,185
1363644,2025-07-10 14:47:55.091,180,362,362,362,362,213,213,213,166,185,185,185,185
1363644,2025-07-10 14:47:55.091,181,798,798,798,798,166,166,166,166,185,185,185,185
1363644,2025-07-10 14:47:55.091,182,798,798,798,798,166,166,166,211,197,197,197,197
1363644,2025-07-10 14:47:55.091,183,331,331,331,331,211,211,211,211,197,197,197,197
1363644,2025-07-10 14:47:55.091,184,331,331,331,331,211,211,211,167,197,197,186,186
1363644,2025-07-10 14:47:55.091,185,820,820,820,820,167,167,167,167,186,186,186,186
1363644,2025-07-10 14:47:55.091,186,820,820,820,820,167,167,167,209,186,186,186,186
1363644,2025-07-10 14:47:55.091,187,313,313,313,313,209,209,209,209,189,189,189,189
1363644,2025-07-10 14:47:55.091,188,313,313,313,313,209,209,209,170,189,189,189,189
1363644,2025-07-10 14:47:55.091,189,843,843,843,843,170,170,170,170,189,189,197,197
1363644,2025-07-10 14:47:55.091,190,843,843,843,843,170,170,170,207,197,197,197,197
1363644,2025-07-10 14:47:55.091,191,292,292,292,292,207,207,207,207,197,197,197,197
1363644,2025-07-10 14:47:55.091,192,292,292,292,292,207,207,207,171,183,183,183,183
1363644,2025-07-10 14:47:55.091,193,854,854,854,854,171,171,171,171,183,183,183,183
1363644,2025-07-10 14:47:55.091,194,854,854,854,854,171,171,171,206,183,183,192,192
1363644,2025-07-10 14:47:55.091,195,279,279,279,279,206,206,206,206,192,192,192,192
1363644,2025-07-10 14:47:55.091,196,279,279,279,279,206,206,206,174,192,192,192,192
1363644,2025-07-10 14:47:55.091,197,885,885,885,885,174,174,174,174,193,193,193,193
1363644,2025-07-10 14:47:55.091,198,885,885,885,885,174,174,174,203,193,193,193,193
1363644,2025-07-10 14:47:55.091,199,249,249,249,249,203,203,203,203,193,193,183,183
1364663,2025-07-10 14:47:56.112,0,910,910,910,910,177,177,177,177,196,196,196,196
1364663,2025-07-10 14:47:56.112,1,910,910,910,910,177,177,177,153,196,196,196,196
1364663,2025-07-10 14:47:56.112,2,317,317,317,317,153,153,153,153,196,196,189,189
1364663,2025-07-10 14:47:56.112,3,317,317,317,317,153,153,153,230,189,189,189,189
1364663,2025-07-10 14:47:56.112,4,824,824,824,824,230,230,230,230,189,189,189,187
1364663,2025-07-10 14:47:56.112,5,824,824,824,824,230,230,230,149,187,187,187,187
1364663,2025-07-10 14:47:56.112,6,338,338,338,338,149,149,149,149,187,187,187,187
1364663,2025-07-10 14:47:56.112,7,338,338,338,338,149,149,149,230,187,187,196,196
1364663,2025-07-10 14:47:56.112,8,808,808,808,808,230,230,230,230,196,196,196,196
1364663,2025-07-10 14:47:56.112,9,808,808,808,808,230,230,230,148,196,196,196,196
1364663,2025-07-10 14:47:56.112,10,355,355,355,355,148,148,148,148,184,184,184,184
1364663,2025-07-10 14:47:56.112,11,355,355,355,355,148,148,148,230,184,184,184,184
1364663,2025-07-10 14:47:56.112,12,781,781,781,781,230,230,230,230,184,184,190,190
1364663,2025-07-10 14:47:56.112,13,781,781,781,781,230,230,230,148,190,190,190,190
1364663,2025-07-10 14:47:56.112,14,376,376,376,376,148,148,148,148,190,190,190,190
1364663,2025-07-10 14:47:56.112,15,376,376,376,376,148,148,148,229,195,195,195,195
1364663,2025-07-10 14:47:56.112,16,768,768,768,768,229,229,229,229,195,195,195,195
1364663,2025-07-10 14:47:56.112,17,768,768,768,768,229,229,229,149,195,184,184,184
1364663,2025-07-10 14:47:56.112,18,382,382,382,382,149,149,149,149,184,184,184,184
1364663,2025-07-10 14:47:56.112,19,382,382,382,382,149,149,149,230,184,184,184,184
1364663,2025-07-10 14:47:56.112,20,766,766,766,766,230,230,230,230,192,192,192,192
1364663,2025-07-10 14:47:56.112,21,766,766,766,766,230,230,230,149,192,192,192,192
1364663,2025-07-10 14:47:56.112,22,395,395,395,395,149,149,149,149,192,192,192,192
1364663,2025-07-10 14:47:56.112,23,395,395,395,395,149,149,149,229,192,192,192,192
1364663,2025-07-10 14:47:56.112,24,748,748,748,748,229,229,229,229,192,192,192,185
1364663,2025-07-10 14:47:56.112,25,748,748,748,748,229,229,229,149,185,185,185,185
1364663,2025-07-10 14:47:56.112,26,415,415,415,415,149,149,149,149,185,185,185,185
1364663,2025-07-10 14:47:56.112,27,415,415,415,415,149,149,149,229,185,185,196,196
1364663,2025-07-10 14:47:56.112,28,722,722,722,722,229,229,229,229,196,196,196,196
1364663,2025-07-10 14:47:56.112,29,722,722,722,722,229,229,229,149,196,196,196,196
1364663,2025-07-10 14:47:56.112,30,433,433,433,433,149,149,149,149,185,185,185,185
1364663,2025-07-10 14:47:56.112,31,433,433,433,433,149,149,149,229,185,185,185,185
1364663,2025-07-10 14:47:56.112,32,718,718,718,718,229,229,229,229,185,185,190,190
1364663,2025-07-10 14:47:56.112,33,718,718,718,718,229,229,229,149,190,190,190,190
1364663,2025-07-10 14:47:56.112,34,442,442,442,442,149,149,149,149,190,190,190,190
1364663,2025-07-10 14:47:56.112,35,442,442,442,442,149,149,149,229,196,196,196,196
1364663,2025-07-10 14:47:56.112,36,687,687,687,687,229,229,229,229,196,196,196,196
1364663,2025-07-10 14:47:56.112,37,687,687,687,687,229,229,229,150,196,196,184,184
1364663,2025-07-10 14:47:56.112,38,467,467,467,467,150,150,150,150,184,184,184,184
1364663,2025-07-10 14:47:56.112,39,467,467,467,467,150,150,150,229,184,184,184,184
1364663,2025-07-10 14:47:56.112,40,662,662,662,662,229,229,229,229,192,192,192,192
1364663,2025-07-10 14:47:56.112,41,662,662,662,662,229,229,229,150,192,192,192,192
1364663,2025-07-10 14:47:56.112,42,491,491,491,491,150,150,150,150,192,192,194,194
1364663,2025-07-10 14:47:56.112,43,491,491,491,491,150,150,150,229,194,194,194,194
1364663,2025-07-10 14:47:56.112,44,641,641,641,641,229,229,229,229,194,194,194,194
1364663,2025-07-10 14:47:56.112,45,641,641,641,641,229,229,229,151,183,183,183,183
1364663,2025-07-10 14:47:56.112,46,508,508,508,508,151,151,151,151,183,183,183,183
1364663,2025-07-10 14:47:56.112,47,508,508,508,508,151,151,151,228,183,183,195,195
1364663,2025-07-10 14:47:56.112,48,627,627,627,627,228,228,228,228,195,195,195,195
1364663,2025-07-10 14:47:56.112,49,627,627,627,627,228,228,228,152,195,195,195,195
1364663,2025-07-10 14:47:56.112,50,519,519,519,519,152,152,152,152,186,186,186,186
1364663,2025-07-10 14:47:56.112,51,519,519,519,519,152,152,152,228,186,186,186,186
1364663,2025-07-10 14:47:56.112,52,615,615,615,615,228,228,228,228,186,186,189,189
1364663,2025-07-10 14:47:56.112,53,615,615,615,615,228,228,228,152,189,189,189,189
1364663,2025-07-10 14:47:56.112,54,537,537,537,537,152,152,152,152,189,189,189,189
1364663,2025-07-10 14:47:56.112,55,537,537,537,537,152,152,152,228,197,197,197,197
1364663,2025-07-10 14:47:56.112,56,591,591,591,591,228,228,228,228,197,197,197,197
1364663,2025-07-10 14:47:56.112,57,591,591,591,591,228,228,228,152,197,197,184,184
1364663,2025-07-10 14:47:56.112,58,563,563,563,563,152,152,152,152,184,184,184,184
1364663,2025-07-10 14:47:56.112,59,563,563,563,563,152,152,152,227,184,184,184,184
1364663,2025-07-10 14:47:56.112,60,565,565,565,565,227,227,227,227,191,191,191,191
1364663,2025-07-10 14:47:56.112,61,565,565,565,565,227,227,227,154,191,191,191,191
1364663,2025-07-10 14:47:56.112,62,590,590,590,590,154,154,154,154,191,191,195,195
1364663,2025-07-10 14:47:56.112,63,590,590,590,590,154,154,154,226,195,195,195,195
1364663,2025-07-10 14:47:56.112,64,541,541,541,541,226,226,226,226,195,195,195,195
1364663,2025-07-10 14:47:56.112,65,541,541,541,541,226,226,226,155,183,183,183,183
1364663,2025-07-10 14:47:56.112,66,616,616,616,616,155,155,155,155,183,183,183,183
1364663,2025-07-10 14:47:56.112,67,616,616,616,616,155,155,155,226,183,183,194,194
1364663,2025-07-10 14:47:56.112,68,519,519,519,519,226,226,226,226,194,194,194,194
1364663,2025-07-10 14:47:56.112,69,519,519,519,519,226,226,226,155,194,194,194,194
1364663,2025-07-10 14:47:56.112,70,630,630,630,630,155,155,155,155,188,188,188,188
1364663,2025-07-10 14:47:56.112,71,630,630,630,630,155,155,155,225,188,188,188,188
1364663,2025-07-10 14:47:56.112,72,508,508,508,508,225,225,225,225,188,188,187,187
1364663,2025-07-10 14:47:56.112,73,508,508,508,508,225,225,225,156,187,187,187,187
1364663,2025-07-10 14:47:56.112,74,641,641,641,641,156,156,156,156,187,187,187,187
1364663,2025-07-10 14:47:56.112,75,641,641,641,641,156,156,156,224,199,199,199,199
1364663,2025-07-10 14:47:56.112,76,496,496,496,496,224,224,224,224,199,199,199,199
1364663,2025-07-10 14:47:56.112,77,496,496,496,496,224,224,224,157,199,199,185,185
1364663,2025-07-10 14:47:56.112,78,666,666,666,666,157,157,157,157,185,185,185,185
1364663,2025-07-10 14:47:56.112,79,666,666,666,666,157,157,157,222,185,185,185,185
1364663,2025-07-10 14:47:56.112,80,468,468,468,468,222,222,222,222,191,191,191,191
1364663,2025-07-10 14:47:56.112,81,468,468,468,468,222,222,222,159,191,191,191,191
1364663,2025-07-10 14:47:56.112,82,691,691,691,691,159,159,159,159,191,191,195,195
1364663,2025-07-10 14:47:56.112,83,691,691,691,691,159,159,159,220,195,195,195,195
1364663,2025-07-10 14:47:56.112,84,442,442,442,442,220,220,220,220,195,195,195,195
1364663,2025-07-10 14:47:56.112,85,442,442,442,442,220,220,220,160,183,183,183,183
1364663,2025-07-10 14:47:56.112,86,722,722,722,722,160,160,160,160,183,183,183,183
1364663,2025-07-10 14:47:56.112,87,722,722,722,722,160,160,160,218,183,183,193,193
1364663,2025-07-10 14:47:56.112,88,424,424,424,424,218,218,218,218,193,193,193,193
1364663,2025-07-10 14:47:56.112,89,424,424,424,424,218,218,218,161,193,193,193,193
1364663,2025-07-10 14:47:56.112,90,735,735,735,735,161,161,161,161,190,190,190,190
1364663,2025-07-10 14:47:56.112,91,735,735,735,735,161,161,161,217,190,190,190,190
1364663,2025-07-10 14:47:56.112,92,402,402,402,402,217,217,217,217,190,190,186,186
1364663,2025-07-10 14:47:56.112,93,402,402,402,402,217,217,217,163,186,186,186,186
1364663,2025-07-10 14:47:56.112,94,753,753,753,753,163,163,163,163,186,186,186,186
1364663,2025-07-10 14:47:56.112,95,753,753,753,753,163,163,163,215,198,198,198,198
1364663,2025-07-10 14:47:56.112,96,388,388,388,388,215,215,215,215,198,198,198,198
1364663,2025-07-10 14:47:56.112,97,388,388,388,388,215,215,215,164,198,198,186,186
1364663,2025-07-10 14:47:56.112,98,765,765,765,765,164,164,164,164,186,186,186,186
1364663,2025-07-10 14:47:56.112,99,765,765,765,765,164,164,164,214,186,186,186,186
1364663,2025-07-10 14:47:56.112,100,376,376,376,376,214,214,214,214,190,190,190,190
1364663,2025-07-10 14:47:56.112,101,376,376,376,376,214,214,214,165,190,190,190,190
1364663,2025-07-10 14:47:56.112,102,776,776,776,776,165,165,165,165,190,190,196,196
1364663,2025-07-10 14:47:56.112,103,776,776,776,776,165,165,165,213,196,196,196,196
1364663,2025-07-10 14:47:56.112,104,356,356,356,356,213,213,213,213,196,196,196,196
1364663,2025-07-10 14:47:56.112,105,356,356,356,356,213,213,213,166,183,183,183,183
1364663,2025-07-10 14:47:56.112,106,804,804,804,804,166,166,166,166,183,183,183,183
1364663,2025-07-10 14:47:56.112,107,804,804,804,804,166,166,166,210,183,183,191,191
1364663,2025-07-10 14:47:56.112,108,330,330,330,330,210,210,210,210,191,191,191,191
1364663,2025-07-10 14:47:56.112,109,330,330,330,330,210,210,210,169,191,191,191,191
1364663,2025-07-10 14:47:56.112,110,829,829,829,829,169,169,169,169,192,192,192,192
1364663,2025-07-10 14:47:56.112,111,829,829,829,829,169,169,169,207,192,192,192,192
1364663,2025-07-10 14:47:56.112,112,300,300,300,300,207,207,207,207,192,192,185,185
1364663,2025-07-10 14:47:56.112,113,300,300,300,300,207,207,207,171,185,185,185,185
1364663,2025-07-10 14:47:56.112,114,857,857,857,857,171,171,171,171,185,185,185,185
1364663,2025-07-10 14:47:56.112,115,857,857,857,857,171,171,171,206,196,196,196,196
1364663,2025-07-10 14:47:56.112,116,280,280,280,280,206,206,206,206,196,196,196,196
1364663,2025-07-10 14:47:56.112,117,280,280,280,280,206,206,206,173,196,196,187,187
1364663,2025-07-10 14:47:56.112,118,873,873,873,873,173,173,173,173,187,187,187,187
1364663,2025-07-10 14:47:56.112,119,873,873,873,873,173,173,173,203,187,187,187,187
1364663,2025-07-10 14:47:56.112,120,256,256,256,256,203,203,203,203,189,189,189,189
1364663,2025-07-10 14:47:56.112,121,256,256,256,256,203,203,203,176,189,189,189,189
1364663,2025-07-10 14:47:56.112,122,895,895,895,895,176,176,176,176,189,189,197,197
1364663,2025-07-10 14:47:56.112,123,895,895,895,895,176,176,176,202,197,197,197,197
1364663,2025-07-10 14:47:56.112,124,245,245,245,245,202,202,202,202,197,197,197,197
1364663,2025-07-10 14:47:56.112,125,245,245,245,245,202,202,202,177,184,184,184,184
1364663,2025-07-10 14:47:56.112,126,913,913,913,913,177,177,177,177,184,184,184,184
1364663,2025-07-10 14:47:56.112,127,913,913,913,913,177,177,177,200,184,184,192,192
1364663,2025-07-10 14:47:56.112,128,217,217,217,217,200,200,200,200,192,192,192,192
1364663,2025-07-10 14:47:56.112,129,217,217,217,217,200,200,200,180,192,192,192,192
1364663,2025-07-10 14:47:56.112,130,944,944,944,944,180,180,180,180,194,194,194,194
1364663,2025-07-10 14:47:56.112,131,944,944,944,944,180,180,180,196,194,194,194,194
1364663,2025-07-10 14:47:56.112,132,187,187,187,187,196,196,196,196,194,194,184,184
1364663,2025-07-10 14:47:56.112,133,187,187,187,187,196,196,196,183,184,184,184,184
1364663,2025-07-10 14:47:56.112,134,974,974,974,974,183,183,183,183,184,184,184,184
1364663,2025-07-10 14:47:56.112,135,974,974,974,974,183,183,183,194,195,195,195,195
1364663,2025-07-10 14:47:56.112,136,160,160,160,160,194,194,194,194,195,195,195,195
1364663,2025-07-10 14:47:56.112,137,160,160,160,160,194,194,194,186,195,195,189,189
1364663,2025-07-10 14:47:56.112,138,996,996,996,996,186,186,186,186,189,189,189,189
1364663,2025-07-10 14:47:56.112,139,996,996,996,996,186,186,186,192,189,189,189,189
1364663,2025-07-10 14:47:56.112,140,140,140,140,140,192,192,192,192,188,188,188,188
1364663,2025-07-10 14:47:56.112,141,140,140,140,140,192,192,192,187,188,188,188,188
1364663,2025-07-10 14:47:56.112,142,1011,1011,1011,1011,187,187,187,187,188,188,197,197
1364663,2025-07-10 14:47:56.112,143,1011,1011,1011,1011,187,187,187,191,197,197,197,197
1364663,2025-07-10 14:47:56.112,144,129,129,129,129,191,191,191,191,197,197,197,197
1364663,2025-07-10 14:47:56.112,145,129,129,129,129,191,191,191,188,184,184,184,184
1364663,2025-07-10 14:47:56.112,146,1019,1019,1019,1019,188,188,188,188,184,184,184,184
1364663,2025-07-10 14:47:56.112,147,1019,1019,1019,1019,188,188,188,190,184,184,191,191
1364663,2025-07-10 14:47:56.112,148,118,118,118,118,190,190,190,190,191,191,191,191
1364663,2025-07-10 14:47:56.112,149,118,118,118,118,190,190,190,190,191,191,191,191
1364663,2025-07-10 14:47:56.112,150,1028,1028,1028,1028,190,190,190,190,195,195,195,195
1364663,2025-07-10 14:47:56.112,151,1028,1028,1028,1028,190,190,190,189,195,195,195,195
1364663,2025-07-10 14:47:56.112,152,103,103,103,103,189,189,189,189,195,195,183,183
1364663,2025-07-10 14:47:56.112,153,103,103,103,103,189,189,189,192,183,183,183,183
1364663,2025-07-10 14:47:56.112,154,1052,1052,1052,1052,192,192,192,192,183,183,183,183
1364663,2025-07-10 14:47:56.112,155,1052,1052,1052,1052,192,192,192,186,193,193,193,193
1364663,2025-07-10 14:47:56.112,156,75,75,75,75,186,186,186,186,193,193,193,193
1364663,2025-07-10 14:47:56.112,157,75,75,75,75,186,186,186,195,193,193,191,191
1364663,2025-07-10 14:47:56.112,158,1081,1081,1081,1081,195,195,195,195,191,191,191,191
1364663,2025-07-10 14:47:56.112,159,1081,1081,1081,1081,195,195,195,183,191,191,191,191
1364663,2025-07-10 14:47:56.112,160,48,48,48,48,183,183,183,183,186,186,186,186
1364663,2025-07-10 14:47:56.112,161,48,48,48,48,183,183,183,197,186,186,186,186
1364663,2025-07-10 14:47:56.112,162,1108,1108,1108,1108,197,197,197,197,186,186,196,196
1364663,2025-07-10 14:47:56.112,163,1108,1108,1108,1108,197,197,197,180,196,196,196,196
1364663,2025-07-10 14:47:56.112,164,24,24,24,24,180,180,180,180,196,196,196,196
1364663,2025-07-10 14:47:56.112,165,24,24,24,24,180,180,180,200,185,185,185,185
1364663,2025-07-10 14:47:56.112,166,1125,1125,1125,1125,200,200,200,200,185,185,185,185
1364663,2025-07-10 14:47:56.112,167,1125,1125,1125,1125,200,200,200,179,185,185,190,190
1364663,2025-07-10 14:47:56.112,168,7,7,7,7,179,179,179,179,190,190,190,190
1364663,2025-07-10 14:47:56.112,169,7,7,7,7,179,179,179,201,190,190,190,190
1364663,2025-07-10 14:47:56.112,170,1142,1142,1142,1142,201,201,201,201,196,196,196,196
1364663,2025-07-10 14:47:56.112,171,1142,1142,1142,1142,201,201,201,178,196,196,196,196
1364663,2025-07-10 14:47:56.112,172,0,0,0,0,178,178,178,178,196,196,184,184
1364663,2025-07-10 14:47:56.112,173,0,0,0,0,178,178,178,202,184,184,184,184
1364663,2025-07-10 14:47:56.112,174,1152,1152,1152,1152,202,202,202,202,184,184,184,184
1364663,2025-07-10 14:47:56.112,175,1152,1152,1152,1152,202,202,202,176,192,192,192,192
1364663,2025-07-10 14:47:56.112,176,4074,4074,4074,4074,176,176,176,176,192,192,192,192
1364663,2025-07-10 14:47:56.112,177,4074,4074,4074,4074,176,176,176,204,192,192,193,193
1364663,2025-07-10 14:47:56.112,178,1167,1167,1167,1167,204,204,204,204,193,193,193,193
1364663,2025-07-10 14:47:56.112,179,1167,1167,1167,1167,204,204,204,174,193,193,193,193
1364663,2025-07-10 14:47:56.112,180,4063,4063,4063,4063,174,174,174,174,184,184,184,184
1364663,2025-07-10 14:47:56.112,181,4063,4063,4063,4063,174,174,174,207,184,184,184,184
1364663,2025-07-10 14:47:56.112,182,1189,1189,1189,1189,207,207,207,207,184,184,196,196
1364663,2025-07-10 14:47:56.112,183,1189,1189,1189,1189,207,207,207,172,196,196,196,196
1364663,2025-07-10 14:47:56.112,184,4046,4046,4046,4046,172,172,172,172,196,196,196,196
1364663,2025-07-10 14:47:56.112,185,4046,4046,4046,4046,172,172,172,209,186,186,186,186
1364663,2025-07-10 14:47:56.112,186,1204,1204,1204,1204,209,209,209,209,186,186,186,186
1364663,2025-07-10 14:47:56.112,187,1204,1204,1204,1204,209,209,209,170,186,186,189,189
1364663,2025-07-10 14:47:56.112,188,4034,4034,4034,4034,170,170,170,170,189,189,189,189
1364663,2025-07-10 14:47:56.112,189,4034,4034,4034,4034,170,170,170,210,189,189,189,189
1364663,2025-07-10 14:47:56.112,190,1214,1214,1214,1214,210,210,210,210,198,198,198,198
1364663,2025-07-10 14:47:56.112,191,1214,1214,1214,1214,210,210,210,169,198,198,198,198
1364663,2025-07-10 14:47:56.112,192,4027,4027,4027,4027,169,169,169,169,198,198,184,184
1364663,2025-07-10 14:47:56.112,193,4027,4027,4027,4027,169,169,169,211,184,184,184,184
1364663,2025-07-10 14:47:56.112,194,1219,1219,1219,1219,211,211,211,211,184,184,184,184
1364663,2025-07-10 14:47:56.112,195,1219,1219,1219,1219,211,211,211,168,191,191,191,191
1364663,2025-07-10 14:47:56.112,196,4024,4024,4024,4024,168,168,168,168,191,191,191,191
1364663,2025-07-10 14:47:56.112,197,4024,4024,4024,4024,168,168,168,211,191,191,194,194
1364663,2025-07-10 14:47:56.112,198,1221,1221,1221,1221,211,211,211,211,194,194,194,194
1364663,2025-07-10 14:47:56.112,199,1221,1221,1221,1221,211,211,211,168,194,194,194,194
1365683,2025-07-10 14:47:57.122,0,4021,4021,4021,4021,168,168,168,168,183,183,183,183
1365683,2025-07-10 14:47:57.122,1,4021,4021,4021,4021,168,168,168,155,183,183,183,183
1365683,2025-07-10 14:47:57.122,2,161,161,161,161,155,155,155,155,183,183,188,188
1365683,2025-07-10 14:47:57.122,3,161,161,161,161,155,155,155,229,188,188,188,188
1365683,2025-07-10 14:47:57.122,4,985,985,985,985,229,229,229,229,188,188,188,188
1365683,2025-07-10 14:47:57.122,5,985,985,985,985,229,229,229,148,189,189,189,189
1365683,2025-07-10 14:47:57.122,6,169,169,169,169,148,148,148,148,189,189,189,189
1365683,2025-07-10 14:47:57.122,7,169,169,169,169,148,148,148,229,189,189,197,197
1365683,2025-07-10 14:47:57.122,8,961,961,961,961,229,229,229,229,197,197,197,197
1365683,2025-07-10 14:47:57.122,9,961,961,961,961,229,229,229,148,197,197,197,197
1365683,2025-07-10 14:47:57.122,10,182,182,182,182,148,148,148,148,184,184,184,184
1365683,2025-07-10 14:47:57.122,11,182,182,182,182,148,148,148,229,184,184,184,184
1365683,2025-07-10 14:47:57.122,12,951,951,951,951,229,229,229,229,184,184,191,191
1365683,2025-07-10 14:47:57.122,13,951,951,951,951,229,229,229,147,191,191,191,191
1365683,2025-07-10 14:47:57.122,14,206,206,206,206,147,147,147,147,191,191,191,191
1365683,2025-07-10 14:47:57.122,15,206,206,206,206,147,147,147,229,194,194,194,194
1365683,2025-07-10 14:47:57.122,16,926,926,926,926,229,229,229,229,194,194,194,194
1365683,2025-07-10 14:47:57.122,17,926,926,926,926,229,229,229,148,194,194,184,184
1365683,2025-07-10 14:47:57.122,18,231,231,231,231,148,148,148,148,184,184,184,184
1365683,2025-07-10 14:47:57.122,19,231,231,231,231,148,148,148,229,184,184,184,184
1365683,2025-07-10 14:47:57.122,20,909,909,909,909,229,229,229,229,195,195,195,195
1365683,2025-07-10 14:47:57.122,21,909,909,909,909,229,229,229,148,195,195,195,195
1365683,2025-07-10 14:47:57.122,22,244,244,244,244,148,148,148,148,195,195,188,188
1365683,2025-07-10 14:47:57.122,23,244,244,244,244,148,148,148,229,188,188,188,188
1365683,2025-07-10 14:47:57.122,24,888,888,888,888,229,229,229,229,188,188,188,188
1365683,2025-07-10 14:47:57.122,25,888,888,888,888,229,229,229,148,188,188,188,188
1365683,2025-07-10 14:47:57.122,26,272,272,272,272,148,148,148,148,188,188,188,188
1365683,2025-07-10 14:47:57.122,27,272,272,272,272,148,148,148,229,188,188,197,197
1365683,2025-07-10 14:47:57.122,28,865,865,865,865,229,229,229,229,197,197,197,197
1365683,2025-07-10 14:47:57.122,29,865,865,865,865,229,229,229,148,197,197,197,197
1365683,2025-07-10 14:47:57.122,30,298,298,298,298,148,148,148,148,184,184,184,184
1365683,2025-07-10 14:47:57.122,31,298,298,298,298,148,148,148,229,184,184,184,184
1365683,2025-07-10 14:47:57.122,32,835,835,835,835,229,229,229,229,184,184,191,191
1365683,2025-07-10 14:47:57.122,33,835,835,835,835,229,229,229,148,191,191,191,191
1365683,2025-07-10 14:47:57.122,34,324,324,324,324,148,148,148,148,191,191,191,191
1365683,2025-07-10 14:47:57.122,35,324,324,324,324,148,148,148,230,195,195,195,195
1365683,2025-07-10 14:47:57.122,36,814,814,814,814,230,230,230,230,195,195,195,195
1365683,2025-07-10 14:47:57.122,37,814,814,814,814,230,230,230,148,195,195,184,184
1365683,2025-07-10 14:47:57.122,38,336,336,336,336,148,148,148,148,184,184,184,184
1365683,2025-07-10 14:47:57.122,39,336,336,336,336,148,148,148,230,184,184,184,184
1365683,2025-07-10 14:47:57.122,40,804,804,804,804,230,230,230,230,193,193,193,193
1365683,2025-07-10 14:47:57.122,41,804,804,804,804,230,230,230,148,193,193,193,193
1365683,2025-07-10 14:47:57.122,42,351,351,351,351,148,148,148,148,193,193,191,191
1365683,2025-07-10 14:47:57.122,43,351,351,351,351,148,148,148,230,191,191,191,191
1365683,2025-07-10 14:47:57.122,44,792,792,792,792,230,230,230,230,191,191,191,191
1365683,2025-07-10 14:47:57.122,45,792,792,792,792,230,230,230,149,186,186,186,186
1365683,2025-07-10 14:47:57.122,46,365,365,365,365,149,149,149,149,186,186,186,186
1365683,2025-07-10 14:47:57.122,47,365,365,365,365,149,149,149,229,186,186,196,196
1365683,2025-07-10 14:47:57.122,48,764,764,764,764,229,229,229,229,196,196,196,196
1365683,2025-07-10 14:47:57.122,49,764,764,764,764,229,229,229,149,196,196,196,196
1365683,2025-07-10 14:47:57.122,50,390,390,390,390,149,149,149,149,185,185,185,185
1365683,2025-07-10 14:47:57.122,51,390,390,390,390,149,149,149,229,185,185,185,185
1365683,2025-07-10 14:47:57.122,52,741,741,741,741,229,229,229,229,185,185,190,190
1365683,2025-07-10 14:47:57.122,53,741,741,741,741,229,229,229,149,190,190,190,190
1365683,2025-07-10 14:47:57.122,54,425,425,425,425,149,149,149,149,190,190,190,190
1365683,2025-07-10 14:47:57.122,55,425,425,425,425,149,149,149,229,197,197,197,197
1365683,2025-07-10 14:47:57.122,56,709,709,709,709,229,229,229,229,197,197,197,197
1365683,2025-07-10 14:47:57.122,57,709,709,709,709,229,229,229,150,197,197,184,184
1365683,2025-07-10 14:47:57.122,58,448,448,448,448,150,150,150,150,184,184,184,184
1365683,2025-07-10 14:47:57.122,59,448,448,448,448,150,150,150,229,184,184,184,184
1365683,2025-07-10 14:47:57.122,60,686,686,686,686,229,229,229,229,192,192,192,192
1365683,2025-07-10 14:47:57.122,61,686,686,686,686,229,229,229,150,192,192,192,192
1365683,2025-07-10 14:47:57.122,62,470,470,470,470,150,150,150,150,192,192,194,194
1365683,2025-07-10 14:47:57.122,63,470,470,470,470,150,150,150,229,194,194,194,194
1365683,2025-07-10 14:47:57.122,64,669,669,669,669,229,229,229,229,194,194,194,194
1365683,2025-07-10 14:47:57.122,65,669,669,669,669,229,229,229,150,184,184,184,184
1365683,2025-07-10 14:47:57.122,66,484,484,484,484,150,150,150,150,184,184,184,184
1365683,2025-07-10 14:47:57.122,67,484,484,484,484,150,150,150,229,184,184,195,195
1365683,2025-07-10 14:47:57.122,68,641,641,641,641,229,229,229,229,195,195,195,195
1365683,2025-07-10 14:47:57.122,69,641,641,641,641,229,229,229,151,195,195,195,195
1365683,2025-07-10 14:47:57.122,70,516,516,516,516,151,151,151,151,186,186,186,186
1365683,2025-07-10 14:47:57.122,71,516,516,516,516,151,151,151,228,186,186,186,186
1365683,2025-07-10 14:47:57.122,72,621,621,621,621,228,228,228,228,186,186,189,189
1365683,2025-07-10 14:47:57.122,73,621,621,621,621,228,228,228,152,189,189,189,189
1365683,2025-07-10 14:47:57.122,74,537,537,537,537,152,152,152,152,189,189,189,189
1365683,2025-07-10 14:47:57.122,75,537,537,537,537,152,152,152,228,198,198,198,198
1365683,2025-07-10 14:47:57.122,76,593,593,593,593,228,228,228,228,198,198,198,198
1365683,2025-07-10 14:47:57.122,77,593,593,593,593,228,228,228,153,198,198,185,185
1365683,2025-07-10 14:47:57.122,78,566,566,566,566,153,153,153,153,185,185,185,185
1365683,2025-07-10 14:47:57.122,79,566,566,566,566,153,153,153,227,185,185,185,185
1365683,2025-07-10 14:47:57.122,80,567,567,567,567,227,227,227,227,191,191,191,191
1365683,2025-07-10 14:47:57.122,81,567,567,567,567,227,227,227,153,191,191,191,191
1365683,2025-07-10 14:47:57.122,82,585,585,585,585,153,153,153,153,191,191,195,195
1365683,2025-07-10 14:47:57.122,83,585,585,585,585,153,153,153,227,195,195,195,195
1365683,2025-07-10 14:47:57.122,84,551,551,551,551,227,227,227,227,195,195,195,195
1365683,2025-07-10 14:47:57.122,85,551,551,551,551,227,227,227,154,183,183,183,183
1365683,2025-07-10 14:47:57.122,86,598,598,598,598,154,154,154,154,183,183,183,183
1365683,2025-07-10 14:47:57.122,87,598,598,598,598,154,154,154,226,183,183,194,194
1365683,2025-07-10 14:47:57.122,88,540,540,540,540,226,226,226,226,194,194,194,194
1365683,2025-07-10 14:47:57.122,89,540,540,540,540,226,226,226,154,194,194,194,194
1365683,2025-07-10 14:47:57.122,90,613,613,613,613,154,154,154,154,187,187,187,187
1365683,2025-07-10 14:47:57.122,91,613,613,613,613,154,154,154,226,187,187,187,187
1365683,2025-07-10 14:47:57.122,92,529,529,529,529,226,226,226,226,187,187,187,187
1365683,2025-07-10 14:47:57.122,93,529,529,529,529,226,226,226,155,187,187,187,187
1365683,2025-07-10 14:47:57.122,94,628,628,628,628,155,155,155,155,187,187,187,187
1365683,2025-07-10 14:47:57.122,95,628,628,628,628,155,155,155,225,198,198,198,198
1365683,2025-07-10 14:47:57.122,96,508,508,508,508,225,225,225,225,198,198,198,198
1365683,2025-07-10 14:47:57.122,97,508,508,508,508,225,225,225,156,198,198,185,185
1365683,2025-07-10 14:47:57.122,98,656,656,656,656,156,156,156,156,185,185,185,185
1365683,2025-07-10 14:47:57.122,99,656,656,656,656,156,156,156,223,185,185,185,185
1365683,2025-07-10 14:47:57.122,100,483,483,483,483,223,223,223,223,191,191,191,191
1365683,2025-07-10 14:47:57.122,101,483,483,483,483,223,223,223,158,191,191,191,191
1365683,2025-07-10 14:47:57.122,102,683,683,683,683,158,158,158,158,191,191,196,196
1365683,2025-07-10 14:47:57.122,103,683,683,683,683,158,158,158,221,196,196,196,196
1365683,2025-07-10 14:47:57.122,104,454,454,454,454,221,221,221,221,196,196,196,196
1365683,2025-07-10 14:47:57.122,105,454,454,454,454,221,221,221,159,182,182,182,182
1365683,2025-07-10 14:47:57.122,106,707,707,707,707,159,159,159,159,182,182,182,182
1365683,2025-07-10 14:47:57.122,107,707,707,707,707,159,159,159,219,182,182,193,193
1365683,2025-07-10 14:47:57.122,108,435,435,435,435,219,219,219,219,193,193,193,193
1365683,2025-07-10 14:47:57.122,109,435,435,435,435,219,219,219,161,193,193,193,193
1365683,2025-07-10 14:47:57.122,110,729,729,729,729,161,161,161,161,189,189,189,189
1365683,2025-07-10 14:47:57.122,111,729,729,729,729,161,161,161,218,189,189,189,189
1365683,2025-07-10 14:47:57.122,112,416,416,416,416,218,218,218,218,189,189,185,185
1365683,2025-07-10 14:47:57.122,113,416,416,416,416,218,218,218,161,185,185,185,185
1365683,2025-07-10 14:47:57.122,114,737,737,737,737,161,161,161,161,185,185,185,185
1365683,2025-07-10 14:47:57.122,115,737,737,737,737,161,161,161,216,198,198,198,198
1365683,2025-07-10 14:47:57.122,116,401,401,401,401,216,216,216,216,198,198,198,198
1365683,2025-07-10 14:47:57.122,117,401,401,401,401,216,216,216,163,198,198,185,185
1365683,2025-07-10 14:47:57.122,118,760,760,760,760,163,163,163,163,185,185,185,185
1365683,2025-07-10 14:47:57.122,119,760,760,760,760,163,163,163,214,185,185,185,185
1365683,2025-07-10 14:47:57.122,120,374,374,374,374,214,214,214,214,190,190,190,190
1365683,2025-07-10 14:47:57.122,121,374,374,374,374,214,214,214,165,190,190,190,190
1365683,2025-07-10 14:47:57.122,122,786,786,786,786,165,165,165,165,190,190,196,196
1365683,2025-07-10 14:47:57.122,123,786,786,786,786,165,165,165,212,196,196,196,196
1365683,2025-07-10 14:47:57.122,124,343,343,343,343,212,212,212,212,196,196,196,196
1365683,2025-07-10 14:47:57.122,125,343,343,343,343,212,212,212,167,183,183,183,183
1365683,2025-07-10 14:47:57.122,126,815,815,815,815,167,167,167,167,183,183,183,183
1365683,2025-07-10 14:47:57.122,127,815,815,815,815,167,167,167,209,183,183,192,192
1365683,2025-07-10 14:47:57.122,128,315,315,315,315,209,209,209,209,192,192,192,192
1365683,2025-07-10 14:47:57.122,129,315,315,315,315,209,209,209,170,192,192,192,192
1365683,2025-07-10 14:47:57.122,130,841,841,841,841,170,170,170,170,192,192,192,192
1365683,2025-07-10 14:47:57.122,131,841,841,841,841,170,170,170,207,192,192,192,192
1365683,2025-07-10 14:47:57.122,132,293,293,293,293,207,207,207,207,192,192,185,185
1365683,2025-07-10 14:47:57.122,133,293,293,293,293,207,207,207,171,185,185,185,185
1365683,2025-07-10 14:47:57.122,134,856,856,856,856,171,171,171,171,185,185,185,185
1365683,2025-07-10 14:47:57.122,135,856,856,856,856,171,171,171,206,196,196,196,196
1365683,2025-07-10 14:47:57.122,136,281,281,281,281,206,206,206,206,196,196,196,196
1365683,2025-07-10 14:47:57.122,137,281,281,281,281,206,206,206,173,196,196,186,186
1365683,2025-07-10 14:47:57.122,138,867,867,867,867,173,173,173,173,186,186,186,186
1365683,2025-07-10 14:47:57.122,139,867,867,867,867,173,173,173,204,186,186,186,186
1365683,2025-07-10 14:47:57.122,140,266,266,266,266,204,204,204,204,189,189,189,189
1365683,2025-07-10 14:47:57.122,141,266,266,266,266,204,204,204,175,189,189,189,189
1365683,2025-07-10 14:47:57.122,142,889,889,889,889,175,175,175,175,189,189,197,197
1365683,2025-07-10 14:47:57.122,143,889,889,889,889,175,175,175,202,197,197,197,197
1365683,2025-07-10 14:47:57.122,144,242,242,242,242,202,202,202,202,197,197,197,197
1365683,2025-07-10 14:47:57.122,145,242,242,242,242,202,202,202,177,183,183,183,183
1365683,2025-07-10 14:47:57.122,146,914,914,914,914,177,177,177,177,183,183,183,183
1365683,2025-07-10 14:47:57.122,147,914,914,914,914,177,177,177,199,183,183,191,191
1365683,2025-07-10 14:47:57.122,148,216,216,216,216,199,199,199,199,191,191,191,191
1365683,2025-07-10 14:47:57.122,149,216,216,216,216,199,199,199,179,191,191,191,191
1365683,2025-07-10 14:47:57.122,150,934,934,934,934,179,179,179,179,194,194,194,194
1365683,2025-07-10 14:47:57.122,151,934,934,934,934,179,179,179,198,194,194,194,194
1365683,2025-07-10 14:47:57.122,152,199,199,199,199,198,198,198,198,194,194,184,184
1365683,2025-07-10 14:47:57.122,153,199,199,199,199,198,198,198,182,184,184,184,184
1365683,2025-07-10 14:47:57.122,154,959,959,959,959,182,182,182,182,184,184,184,184
1365683,2025-07-10 14:47:57.122,155,959,959,959,959,182,182,182,196,195,195,195,195
1365683,2025-07-10 14:47:57.122,156,179,179,179,179,196,196,196,196,195,195,195,195
1365683,2025-07-10 14:47:57.122,157,179,179,179,179,196,196,196,184,195,195,188,188
1365683,2025-07-10 14:47:57.122,158,973,973,973,973,184,184,184,184,188,188,188,188
1365683,2025-07-10 14:47:57.122,159,973,973,973,973,184,184,184,194,188,188,188,188
1365683,2025-07-10 14:47:57.122,160,165,165,165,165,194,194,194,194,188,188,188,188
1365683,2025-07-10 14:47:57.122,161,165,165,165,165,194,194,194,184,188,188,188,188
1365683,2025-07-10 14:47:57.122,162,985,985,985,985,184,184,184,184,188,188,197,197
1365683,2025-07-10 14:47:57.122,163,985,985,985,985,184,184,184,193,197,197,197,197
1365683,2025-07-10 14:47:57.122,164,156,156,156,156,193,193,193,193,197,197,197,197
1365683,2025-07-10 14:47:57.122,165,156,156,156,156,193,193,193,187,184,184,184,184
1365683,2025-07-10 14:47:57.122,166,1004,1004,1004,1004,187,187,187,187,184,184,184,184
1365683,2025-07-10 14:47:57.122,167,1004,1004,1004,1004,187,187,187,191,184,184,191,191
1365683,2025-07-10 14:47:57.122,168,129,129,129,129,191,191,191,191,191,191,191,191
1365683,2025-07-10 14:47:57.122,169,129,129,129,129,191,191,191,190,191,191,191,191
1365683,2025-07-10 14:47:57.122,170,1034,1034,1034,1034,190,190,190,190,195,195,195,195
1365683,2025-07-10 14:47:57.122,171,1034,1034,1034,1034,190,190,190,187,195,195,195,195
1365683,2025-07-10 14:47:57.122,172,99,99,99,99,187,187,187,187,195,195,184,184
1365683,2025-07-10 14:47:57.122,173,99,99,99,99,187,187,187,193,184,184,184,184
1365683,2025-07-10 14:47:57.122,174,1065,1065,1065,1065,193,193,193,193,184,184,184,184
1365683,2025-07-10 14:47:57.122,175,1065,1065,1065,1065,193,193,193,185,193,193,193,193
1365683,2025-07-10 14:47:57.122,176,70,70,70,70,185,185,185,185,193,193,193,193
1365683,2025-07-10 14:47:57.122,177,70,70,70,70,185,185,185,195,193,193,191,191
1365683,2025-07-10 14:47:57.122,178,1088,1088,1088,1088,195,195,195,195,191,191,191,191
1365683,2025-07-10 14:47:57.122,179,1088,1088,1088,1088,195,195,195,183,191,191,191,191
1365683,2025-07-10 14:47:57.122,180,50,50,50,50,183,183,183,183,186,186,186,186
1365683,2025-07-10 14:47:57.122,181,50,50,50,50,183,183,183,197,186,186,186,186
1365683,2025-07-10 14:47:57.122,182,1106,1106,1106,1106,197,197,197,197,186,186,196,196
1365683,2025-07-10 14:47:57.122,183,1106,1106,1106,1106,197,197,197,181,196,196,196,196
1365683,2025-07-10 14:47:57.122,184,35,35,35,35,181,181,181,181,196,196,196,196
1365683,2025-07-10 14:47:57.122,185,35,35,35,35,181,181,181,199,185,185,185,185
1365683,2025-07-10 14:47:57.122,186,1115,1115,1115,1115,199,199,199,199,185,185,185,185
1365683,2025-07-10 14:47:57.122,187,1115,1115,1115,1115,199,199,199,180,185,185,190,190
1365683,2025-07-10 14:47:57.122,188,23,23,23,23,180,180,180,180,190,190,190,190
1365683,2025-07-10 14:47:57.122,189,23,23,23,23,180,180,180,201,190,190,190,190
1365683,2025-07-10 14:47:57.122,190,1134,1134,1134,1134,201,201,201,201,197,197,197,197
1365683,2025-07-10 14:47:57.122,191,1134,1134,1134,1134,201,201,201,178,197,197,197,197
1365683,2025-07-10 14:47:57.122,192,4090,4090,4090,4090,178,178,178,178,197,197,184,184
1365683,2025-07-10 14:47:57.122,193,4090,4090,4090,4090,178,178,178,203,184,184,184,184
1365683,2025-07-10 14:47:57.122,194,1160,1160,1160,1160,203,203,203,203,184,184,184,184
1365683,2025-07-10 14:47:57.122,195,1160,1160,1160,1160,203,203,203,175,192,192,192,192
1365683,2025-07-10 14:47:57.122,196,4065,4065,4065,4065,175,175,175,175,192,192,192,192
1365683,2025-07-10 14:47:57.122,197,4065,4065,4065,4065,175,175,175,206,192,192,193,193
1365683,2025-07-10 14:47:57.122,198,1181,1181,1181,1181,206,206,206,206,193,193,193,193
1365683,2025-07-10 14:47:57.122,199,1181,1181,1181,1181,206,206,206,173,193,193,193,193
1366704,2025-07-10 14:47:58.258,0,4053,4053,4053,4053,173,173,173,173,184,184,184,184
1366704,2025-07-10 14:47:58.258,1,4053,4053,4053,4053,173,173,173,156,184,184,184,184
1366704,2025-07-10 14:47:58.258,2,91,91,91,91,156,156,156,156,184,184,188,188
1366704,2025-07-10 14:47:58.258,3,91,91,91,91,156,156,156,227,188,188,188,188
1366704,2025-07-10 14:47:58.258,4,1053,1053,1053,1053,227,227,227,227,188,188,188,188
1366704,2025-07-10 14:47:58.258,5,1053,1053,1053,1053,227,227,227,151,190,190,190,190
1366704,2025-07-10 14:47:58.258,6,102,102,102,102,151,151,151,151,190,190,190,190
1366704,2025-07-10 14:47:58.258,7,102,102,102,102,151,151,151,227,190,190,197,197
1366704,2025-07-10 14:47:58.258,8,1037,1037,1037,1037,227,227,227,227,197,197,197,197
1366704,2025-07-10 14:47:58.258,9,1037,1037,1037,1037,227,227,227,151,197,197,197,197
1366704,2025-07-10 14:47:58.258,10,117,117,117,117,151,151,151,151,183,183,183,183
1366704,2025-07-10 14:47:58.258,11,117,117,117,117,151,151,151,227,183,183,183,183
1366704,2025-07-10 14:47:58.258,12,1020,1020,1020,1020,227,227,227,227,183,183,192,192
1366704,2025-07-10 14:47:58.258,13,1020,1020,1020,1020,227,227,227,150,192,192,192,192
1366704,2025-07-10 14:47:58.258,14,136,136,136,136,150,150,150,150,192,192,192,192
1366704,2025-07-10 14:47:58.258,15,136,136,136,136,150,150,150,228,192,192,192,192
1366704,2025-07-10 14:47:58.258,16,995,995,995,995,228,228,228,228,192,192,192,192
1366704,2025-07-10 14:47:58.258,17,995,995,995,995,228,228,228,149,192,192,184,184
1366704,2025-07-10 14:47:58.258,18,167,167,167,167,149,149,149,149,184,184,184,184
1366704,2025-07-10 14:47:58.258,19,167,167,167,167,149,149,149,228,184,184,184,184
1366704,2025-07-10 14:47:58.258,20,971,971,971,971,228,228,228,228,196,196,196,196
1366704,2025-07-10 14:47:58.258,21,971,971,971,971,228,228,228,149,196,196,196,196
1366704,2025-07-10 14:47:58.258,22,185,185,185,185,149,149,149,149,196,196,188,188
1366704,2025-07-10 14:47:58.258,23,185,185,185,185,149,149,149,229,188,188,188,188
1366704,2025-07-10 14:47:58.258,24,955,955,955,955,229,229,229,229,188,188,188,188
1366704,2025-07-10 14:47:58.258,25,955,955,955,955,229,229,229,148,189,189,189,189
1366704,2025-07-10 14:47:58.258,26,203,203,203,203,148,148,148,148,189,189,189,189
1366704,2025-07-10 14:47:58.258,27,203,203,203,203,148,148,148,228,189,189,197,197
1366704,2025-07-10 14:47:58.258,28,937,937,937,937,228,228,228,228,197,197,197,197
1366704,2025-07-10 14:47:58.258,29,937,937,937,937,228,228,228,148,197,197,197,197
1366704,2025-07-10 14:47:58.258,30,218,218,218,218,148,148,148,148,184,184,184,184
1366704,2025-07-10 14:47:58.258,31,218,218,218,218,148,148,148,229,184,184,184,184
1366704,2025-07-10 14:47:58.258,32,918,918,918,918,229,229,229,229,184,184,191,191
1366704,2025-07-10 14:47:58.258,33,918,918,918,918,229,229,229,149,191,191,191,191
1366704,2025-07-10 14:47:58.258,34,246,246,246,246,149,149,149,149,191,191,191,191
1366704,2025-07-10 14:47:58.258,35,246,246,246,246,149,149,149,229,194,194,194,194
1366704,2025-07-10 14:47:58.258,36,888,888,888,888,229,229,229,229,194,194,194,194
1366704,2025-07-10 14:47:58.258,37,888,888,888,888,229,229,229,148,194,194,184,184
1366704,2025-07-10 14:47:58.258,38,279,279,279,279,148,148,148,148,184,184,184,184
1366704,2025-07-10 14:47:58.258,39,279,279,279,279,148,148,148,229,184,184,184,184
1366704,2025-07-10 14:47:58.258,40,854,854,854,854,229,229,229,229,194,194,194,194
1366704,2025-07-10 14:47:58.258,41,854,854,854,854,229,229,229,149,194,194,194,194
1366704,2025-07-10 14:47:58.258,42,307,307,307,307,149,149,149,149,194,194,189,189
1366704,2025-07-10 14:47:58.258,43,307,307,307,307,149,149,149,229,189,189,189,189
1366704,2025-07-10 14:47:58.258,44,833,833,833,833,229,229,229,229,189,189,189,189
1366704,2025-07-10 14:47:58.258,45,833,833,833,833,229,229,229,149,187,187,187,187
1366704,2025-07-10 14:47:58.258,46,321,321,321,321,149,149,149,149,187,187,187,187
1366704,2025-07-10 14:47:58.258,47,321,321,321,321,149,149,149,229,187,187,197,197
1366704,2025-07-10 14:47:58.258,48,816,816,816,816,229,229,229,229,197,197,197,197
1366704,2025-07-10 14:47:58.258,49,816,816,816,816,229,229,229,148,197,197,197,197
1366704,2025-07-10 14:47:58.258,50,343,343,343,343,148,148,148,148,184,184,184,184
1366704,2025-07-10 14:47:58.258,51,343,343,343,343,148,148,148,229,184,184,184,184
1366704,2025-07-10 14:47:58.258,52,793,793,793,793,229,229,229,229,184,184,190,190
1366704,2025-07-10 14:47:58.258,53,793,793,793,793,229,229,229,149,190,190,190,190
1366704,2025-07-10 14:47:58.258,54,368,368,368,368,149,149,149,149,190,190,190,190
1366704,2025-07-10 14:47:58.258,55,368,368,368,368,149,149,149,229,196,196,196,196
1366704,2025-07-10 14:47:58.258,56,766,766,766,766,229,229,229,229,196,196,196,196
1366704,2025-07-10 14:47:58.258,57,766,766,766,766,229,229,229,150,196,196,184,184
1366704,2025-07-10 14:47:58.258,58,392,392,392,392,150,150,150,150,184,184,184,184
1366704,2025-07-10 14:47:58.258,59,392,392,392,392,150,150,150,229,184,184,184,184
1366704,2025-07-10 14:47:58.258,60,739,739,739,739,229,229,229,229,192,192,192,192
1366704,2025-07-10 14:47:58.258,61,739,739,739,739,229,229,229,150,192,192,192,192
1366704,2025-07-10 14:47:58.258,62,417,417,417,417,150,150,150,150,192,192,192,192
1366704,2025-07-10 14:47:58.258,63,417,417,417,417,150,150,150,229,192,192,192,192
1366704,2025-07-10 14:47:58.258,64,719,719,719,719,229,229,229,229,192,192,192,192
1366704,2025-07-10 14:47:58.258,65,719,719,719,719,229,229,229,150,185,185,185,185
1366704,2025-07-10 14:47:58.258,66,435,435,435,435,150,150,150,150,185,185,185,185
1366704,2025-07-10 14:47:58.258,67,435,435,435,435,150,150,150,228,185,185,195,195
1366704,2025-07-10 14:47:58.258,68,690,690,690,690,228,228,228,228,195,195,195,195
1366704,2025-07-10 14:47:58.258,69,690,690,690,690,228,228,228,151,195,195,195,195
1366704,2025-07-10 14:47:58.258,70,465,465,465,465,151,151,151,151,185,185,185,185
1366704,2025-07-10 14:47:58.258,71,465,465,465,465,151,151,151,228,185,185,185,185
1366704,2025-07-10 14:47:58.258,72,682,682,682,682,228,228,228,228,185,185,189,189
1366704,2025-07-10 14:47:58.258,73,682,682,682,682,228,228,228,150,189,189,189,189
1366704,2025-07-10 14:47:58.258,74,472,472,472,472,150,150,150,150,189,189,189,189
1366704,2025-07-10 14:47:58.258,75,472,472,472,472,150,150,150,228,197,197,197,197
1366704,2025-07-10 14:47:58.258,76,665,665,665,665,228,228,228,228,197,197,197,197
1366704,2025-07-10 14:47:58.258,77,665,665,665,665,228,228,228,151,197,197,184,184
1366704,2025-07-10 14:47:58.258,78,497,497,497,497,151,151,151,151,184,184,184,184
1366704,2025-07-10 14:47:58.258,79,497,497,497,497,151,151,151,228,184,184,184,184
1366704,2025-07-10 14:47:58.258,80,638,638,638,638,228,228,228,228,191,191,191,191
1366704,2025-07-10 14:47:58.258,81,638,638,638,638,228,228,228,152,191,191,191,191
1366704,2025-07-10 14:47:58.258,82,524,524,524,524,152,152,152,152,191,191,194,194
1366704,2025-07-10 14:47:58.258,83,524,524,524,524,152,152,152,227,194,194,194,194
1366704,2025-07-10 14:47:58.258,84,610,610,610,610,227,227,227,227,194,194,194,194
1366704,2025-07-10 14:47:58.258,85,610,610,610,610,227,227,227,153,183,183,183,183
1366704,2025-07-10 14:47:58.258,86,550,550,550,550,153,153,153,153,183,183,183,183
1366704,2025-07-10 14:47:58.258,87,550,550,550,550,153,153,153,226,183,183,194,194
1366704,2025-07-10 14:47:58.258,88,583,583,583,583,226,226,226,226,194,194,194,194
1366704,2025-07-10 14:47:58.258,89,583,583,583,583,226,226,226,153,194,194,194,194
1366704,2025-07-10 14:47:58.258,90,574,574,574,574,153,153,153,153,187,187,187,187
1366704,2025-07-10 14:47:58.258,91,574,574,574,574,153,153,153,226,187,187,187,187
1366704,2025-07-10 14:47:58.258,92,567,567,567,567,226,226,226,226,187,187,188,188
1366704,2025-07-10 14:47:58.258,93,567,567,567,567,226,226,226,154,188,188,188,188
1366704,2025-07-10 14:47:58.258,94,581,581,581,581,154,154,154,154,188,188,188,188
1366704,2025-07-10 14:47:58.258,95,581,581,581,581,154,154,154,226,198,198,198,198
1366704,2025-07-10 14:47:58.258,96,558,558,558,558,226,226,226,226,198,198,198,198
1366704,2025-07-10 14:47:58.258,97,558,558,558,558,226,226,226,154,198,198,184,184
1366704,2025-07-10 14:47:58.258,98,594,594,594,594,154,154,154,154,184,184,184,184
1366704,2025-07-10 14:47:58.258,99,594,594,594,594,154,154,154,225,184,184,184,184
1366704,2025-07-10 14:47:58.258,100,545,545,545,545,225,225,225,225,191,191,191,191
1366704,2025-07-10 14:47:58.258,101,545,545,545,545,225,225,225,156,191,191,191,191
1366704,2025-07-10 14:47:58.258,102,613,613,613,613,156,156,156,156,191,191,195,195
1366704,2025-07-10 14:47:58.258,103,613,613,613,613,156,156,156,224,195,195,195,195
1366704,2025-07-10 14:47:58.258,104,518,518,518,518,224,224,224,224,195,195,195,195
1366704,2025-07-10 14:47:58.258,105,518,518,518,518,224,224,224,157,182,182,182,182
1366704,2025-07-10 14:47:58.258,106,637,637,637,637,157,157,157,157,182,182,182,182
1366704,2025-07-10 14:47:58.258,107,637,637,637,637,157,157,157,224,182,182,194,194
1366704,2025-07-10 14:47:58.258,108,501,501,501,501,224,224,224,224,194,194,194,194
1366704,2025-07-10 14:47:58.258,109,501,501,501,501,224,224,224,157,194,194,194,194
1366704,2025-07-10 14:47:58.258,110,650,650,650,650,157,157,157,157,188,188,188,188
1366704,2025-07-10 14:47:58.258,111,650,650,650,650,157,157,157,222,188,188,188,188
1366704,2025-07-10 14:47:58.258,112,484,484,484,484,222,222,222,222,188,188,186,186
1366704,2025-07-10 14:47:58.258,113,484,484,484,484,222,222,222,158,186,186,186,186
1366704,2025-07-10 14:47:58.258,114,665,665,665,665,158,158,158,158,186,186,186,186
1366704,2025-07-10 14:47:58.258,115,665,665,665,665,158,158,158,220,198,198,198,198
1366704,2025-07-10 14:47:58.258,116,464,464,464,464,220,220,220,220,198,198,198,198
1366704,2025-07-10 14:47:58.258,117,464,464,464,464,220,220,220,160,198,198,185,185
1366704,2025-07-10 14:47:58.258,118,686,686,686,686,160,160,160,160,185,185,185,185
1366704,2025-07-10 14:47:58.258,119,686,686,686,686,160,160,160,220,185,185,185,185
1366704,2025-07-10 14:47:58.258,120,447,447,447,447,220,220,220,220,190,190,190,190
1366704,2025-07-10 14:47:58.258,121,447,447,447,447,220,220,220,161,190,190,190,190
1366704,2025-07-10 14:47:58.258,122,698,698,698,698,161,161,161,161,190,190,196,196
1366704,2025-07-10 14:47:58.258,123,698,698,698,698,161,161,161,218,196,196,196,196
1366704,2025-07-10 14:47:58.258,124,436,436,436,436,218,218,218,218,196,196,196,196
1366704,2025-07-10 14:47:58.258,125,436,436,436,436,218,218,218,161,183,183,183,183
1366704,2025-07-10 14:47:58.258,126,714,714,714,714,161,161,161,161,183,183,183,183
1366704,2025-07-10 14:47:58.258,127,714,714,714,714,161,161,161,217,183,183,193,193
1366704,2025-07-10 14:47:58.258,128,425,425,425,425,217,217,217,217,193,193,193,193
1366704,2025-07-10 14:47:58.258,129,425,425,425,425,217,217,217,162,193,193,193,193
1366704,2025-07-10 14:47:58.258,130,726,726,726,726,162,162,162,162,190,190,190,190
1366704,2025-07-10 14:47:58.258,131,726,726,726,726,162,162,162,216,190,190,190,190
1366704,2025-07-10 14:47:58.258,132,409,409,409,409,216,216,216,216,190,190,185,185
1366704,2025-07-10 14:47:58.258,133,409,409,409,409,216,216,216,163,185,185,185,185
1366704,2025-07-10 14:47:58.258,134,751,751,751,751,163,163,163,163,185,185,185,185
1366704,2025-07-10 14:47:58.258,135,751,751,751,751,163,163,163,214,198,198,198,198
1366704,2025-07-10 14:47:58.258,136,382,382,382,382,214,214,214,214,198,198,198,198
1366704,2025-07-10 14:47:58.258,137,382,382,382,382,214,214,214,166,198,198,186,186
1366704,2025-07-10 14:47:58.258,138,782,782,782,782,166,166,166,166,186,186,186,186
1366704,2025-07-10 14:47:58.258,139,782,782,782,782,166,166,166,211,186,186,186,186
1366704,2025-07-10 14:47:58.258,140,350,350,350,350,211,211,211,211,190,190,190,190
1366704,2025-07-10 14:47:58.258,141,350,350,350,350,211,211,211,168,190,190,190,190
1366704,2025-07-10 14:47:58.258,142,804,804,804,804,168,168,168,168,190,190,197,197
1366704,2025-07-10 14:47:58.258,143,804,804,804,804,168,168,168,209,197,197,197,197
1366704,2025-07-10 14:47:58.258,144,337,337,337,337,209,209,209,209,197,197,197,197
1366704,2025-07-10 14:47:58.258,145,337,337,337,337,209,209,209,170,183,183,183,183
1366704,2025-07-10 14:47:58.258,146,815,815,815,815,170,170,170,170,183,183,183,183
1366704,2025-07-10 14:47:58.258,147,815,815,815,815,170,170,170,208,183,183,192,192
1366704,2025-07-10 14:47:58.258,148,324,324,324,324,208,208,208,208,192,192,192,192
1366704,2025-07-10 14:47:58.258,149,324,324,324,324,208,208,208,172,192,192,192,192
1366704,2025-07-10 14:47:58.258,150,826,826,826,826,172,172,172,172,192,192,192,192
1366704,2025-07-10 14:47:58.258,151,826,826,826,826,172,172,172,205,192,192,192,192
1366704,2025-07-10 14:47:58.258,152,302,302,302,302,205,205,205,205,192,192,184,184
1366704,2025-07-10 14:47:58.258,153,302,302,302,302,205,205,205,174,184,184,184,184
1366704,2025-07-10 14:47:58.258,154,840,840,840,840,174,174,174,174,184,184,184,184
1366704,2025-07-10 14:47:58.258,155,840,840,840,840,174,174,174,203,196,196,196,196
1366704,2025-07-10 14:47:58.258,156,281,281,281,281,203,203,203,203,196,196,196,196
1366704,2025-07-10 14:47:58.258,157,281,281,281,281,203,203,203,177,196,196,188,188
1366704,2025-07-10 14:47:58.258,158,861,861,861,861,177,177,177,177,188,188,188,188
1366704,2025-07-10 14:47:58.258,159,861,861,861,861,177,177,177,200,188,188,188,188
1366704,2025-07-10 14:47:58.258,160,247,247,247,247,200,200,200,200,188,188,188,188
1366704,2025-07-10 14:47:58.258,161,247,247,247,247,200,200,200,181,188,188,188,188
1366704,2025-07-10 14:47:58.258,162,897,897,897,897,181,181,181,181,188,188,197,197
1366704,2025-07-10 14:47:58.258,163,897,897,897,897,181,181,181,197,197,197,197,197
1366704,2025-07-10 14:47:58.258,164,221,221,221,221,197,197,197,197,197,197,197,197
1366704,2025-07-10 14:47:58.258,165,221,221,221,221,197,197,197,182,184,184,184,184
1366704,2025-07-10 14:47:58.258,166,914,914,914,914,182,182,182,182,184,184,184,184
1366704,2025-07-10 14:47:58.258,167,914,914,914,914,182,182,182,196,184,184,191,191
1366704,2025-07-10 14:47:58.258,168,205,205,205,205,196,196,196,196,191,191,191,191
1366704,2025-07-10 14:47:58.258,169,205,205,205,205,196,196,196,185,191,191,191,191
1366704,2025-07-10 14:47:58.258,170,927,927,927,927,185,185,185,185,194,194,194,194
1366704,2025-07-10 14:47:58.258,171,927,927,927,927,185,185,185,193,194,194,194,194
1366704,2025-07-10 14:47:58.258,172,181,181,181,181,193,193,193,193,194,194,184,184
1366704,2025-07-10 14:47:58.258,173,181,181,181,181,193,193,193,188,184,184,184,184
1366704,2025-07-10 14:47:58.258,174,946,946,946,946,188,188,188,188,184,184,184,184
1366704,2025-07-10 14:47:58.258,175,946,946,946,946,188,188,188,191,194,194,194,194
1366704,2025-07-10 14:47:58.258,176,155,155,155,155,191,191,191,191,194,194,194,194
1366704,2025-07-10 14:47:58.258,177,155,155,155,155,191,191,191,190,194,194,189,189
1366704,2025-07-10 14:47:58.258,178,965,965,965,965,190,190,190,190,189,189,189,189
1366704,2025-07-10 14:47:58.258,179,965,965,965,965,190,190,190,188,189,189,189,189
1366704,2025-07-10 14:47:58.258,180,130,130,130,130,188,188,188,188,187,187,187,187
1366704,2025-07-10 14:47:58.258,181,130,130,130,130,188,188,188,193,187,187,187,187
1366704,2025-07-10 14:47:58.258,182,995,995,995,995,193,193,193,193,187,187,197,197
1366704,2025-07-10 14:47:58.258,183,995,995,995,995,193,193,193,186,197,197,197,197
1366704,2025-07-10 14:47:58.258,184,105,105,105,105,186,186,186,186,197,197,197,197
1366704,2025-07-10 14:47:58.258,185,105,105,105,105,186,186,186,194,185,185,185,185
1366704,2025-07-10 14:47:58.258,186,1011,1011,1011,1011,194,194,194,194,185,185,185,185
1366704,2025-07-10 14:47:58.258,187,1011,1011,1011,1011,194,194,194,185,185,185,190,190
1366704,2025-07-10 14:47:58.258,188,93,93,93,93,185,185,185,185,190,190,190,190
1366704,2025-07-10 14:47:58.258,189,93,93,93,93,185,185,185,196,190,190,190,190
1366704,2025-07-10 14:47:58.258,190,1022,1022,1022,1022,196,196,196,196,196,196,196,196
1366704,2025-07-10 14:47:58.258,191,1022,1022,1022,1022,196,196,196,183,196,196,196,196
1366704,2025-07-10 14:47:58.258,192,81,81,81,81,183,183,183,183,196,196,184,184
1366704,2025-07-10 14:47:58.258,193,81,81,81,81,183,183,183,197,184,184,184,184
1366704,2025-07-10 14:47:58.258,194,1030,1030,1030,1030,197,197,197,197,184,184,184,184
1366704,2025-07-10 14:47:58.258,195,1030,1030,1030,1030,197,197,197,182,193,193,193,193
1366704,2025-07-10 14:47:58.258,196,69,69,69,69,182,182,182,182,193,193,193,193
1366704,2025-07-10 14:47:58.258,197,69,69,69,69,182,182,182,198,193,193,191,191
1366704,2025-07-10 14:47:58.258,198,1042,1042,1042,1042,198,198,198,198,191,191,191,191
1366704,2025-07-10 14:47:58.258,199,1042,1042,1042,1042,198,198,198,180,191,191,191,191
1367724,2025-07-10 14:47:59.264,0,47,47,47,47,180,180,180,180,185,185,185,185
1367724,2025-07-10 14:47:59.264,1,47,47,47,47,180,180,180,165,185,185,185,185
1367724,2025-07-10 14:47:59.264,2,4023,4023,4023,4023,165,165,165,165,185,185,187,187
1367724,2025-07-10 14:47:59.264,3,4023,4023,4023,4023,165,165,165,216,187,187,187,187
1367724,2025-07-10 14:47:59.264,4,1188,1188,1188,1188,216,216,216,216,187,187,187,187
1367724,2025-07-10 14:47:59.264,5,1188,1188,1188,1188,216,216,216,162,191,191,191,191
1367724,2025-07-10 14:47:59.264,6,4030,4030,4030,4030,162,162,162,162,191,191,191,191
1367724,2025-07-10 14:47:59.264,7,4030,4030,4030,4030,162,162,162,218,191,191,196,196
1367724,2025-07-10 14:47:59.264,8,1194,1194,1194,1194,218,218,218,218,196,196,196,196
1367724,2025-07-10 14:47:59.264,9,1194,1194,1194,1194,218,218,218,161,196,196,196,196
1367724,2025-07-10 14:47:59.264,10,4039,4039,4039,4039,161,161,161,161,182,182,182,182
1367724,2025-07-10 14:47:59.264,11,4039,4039,4039,4039,161,161,161,220,182,182,182,182
1367724,2025-07-10 14:47:59.264,12,1188,1188,1188,1188,220,220,220,220,182,182,193,193
1367724,2025-07-10 14:47:59.264,13,1188,1188,1188,1188,220,220,220,159,193,193,193,193
1367724,2025-07-10 14:47:59.264,14,4050,4050,4050,4050,159,159,159,159,193,193,193,193
1367724,2025-07-10 14:47:59.264,15,4050,4050,4050,4050,159,159,159,220,189,189,189,189
1367724,2025-07-10 14:47:59.264,16,1183,1183,1183,1183,220,220,220,220,189,189,189,189
1367724,2025-07-10 14:47:59.264,17,1183,1183,1183,1183,220,220,220,157,189,189,186,186
1367724,2025-07-10 14:47:59.264,18,4063,4063,4063,4063,157,157,157,157,186,186,186,186
1367724,2025-07-10 14:47:59.264,19,4063,4063,4063,4063,157,157,157,222,186,186,186,186
1367724,2025-07-10 14:47:59.264,20,1168,1168,1168,1168,222,222,222,222,198,198,198,198
1367724,2025-07-10 14:47:59.264,21,1168,1168,1168,1168,222,222,222,156,198,198,198,198
1367724,2025-07-10 14:47:59.264,22,4078,4078,4078,4078,156,156,156,156,198,198,186,186
1367724,2025-07-10 14:47:59.264,23,4078,4078,4078,4078,156,156,156,223,186,186,186,186
1367724,2025-07-10 14:47:59.264,24,1157,1157,1157,1157,223,223,223,223,186,186,186,186
1367724,2025-07-10 14:47:59.264,25,1157,1157,1157,1157,223,223,223,155,190,190,190,190
1367724,2025-07-10 14:47:59.264,26,4093,4093,4093,4093,155,155,155,155,190,190,190,190
1367724,2025-07-10 14:47:59.264,27,4093,4093,4093,4093,155,155,155,223,190,190,196,196
1367724,2025-07-10 14:47:59.264,28,1140,1140,1140,1140,223,223,223,223,196,196,196,196
1367724,2025-07-10 14:47:59.264,29,1140,1140,1140,1140,223,223,223,154,196,196,196,196
1367724,2025-07-10 14:47:59.264,30,1,1,1,1,154,154,154,154,183,183,183,183
1367724,2025-07-10 14:47:59.264,31,1,1,1,1,154,154,154,224,183,183,183,183
1367724,2025-07-10 14:47:59.264,32,1133,1133,1133,1133,224,224,224,224,183,183,192,192
1367724,2025-07-10 14:47:59.264,33,1133,1133,1133,1133,224,224,224,154,192,192,192,192
1367724,2025-07-10 14:47:59.264,34,13,13,13,13,154,154,154,154,192,192,192,192
1367724,2025-07-10 14:47:59.264,35,13,13,13,13,154,154,154,225,191,191,191,191
1367724,2025-07-10 14:47:59.264,36,1116,1116,1116,1116,225,225,225,225,191,191,191,191
1367724,2025-07-10 14:47:59.264,37,1116,1116,1116,1116,225,225,225,152,191,191,185,185
1367724,2025-07-10 14:47:59.264,38,22,22,22,22,152,152,152,152,185,185,185,185
1367724,2025-07-10 14:47:59.264,39,22,22,22,22,152,152,152,225,185,185,185,185
1367724,2025-07-10 14:47:59.264,40,1091,1091,1091,1091,225,225,225,225,197,197,197,197
1367724,2025-07-10 14:47:59.264,41,1091,1091,1091,1091,225,225,225,151,197,197,197,197
1367724,2025-07-10 14:47:59.264,42,49,49,49,49,151,151,151,151,197,197,187,187
1367724,2025-07-10 14:47:59.264,43,49,49,49,49,151,151,151,226,187,187,187,187
1367724,2025-07-10 14:47:59.264,44,1063,1063,1063,1063,226,226,226,226,187,187,187,187
1367724,2025-07-10 14:47:59.264,45,1063,1063,1063,1063,226,226,226,151,189,189,189,189
1367724,2025-07-10 14:47:59.264,46,65,65,65,65,151,151,151,151,189,189,189,189
1367724,2025-07-10 14:47:59.264,47,65,65,65,65,151,151,151,226,189,189,197,197
1367724,2025-07-10 14:47:59.264,48,1043,1043,1043,1043,226,226,226,226,197,197,197,197
1367724,2025-07-10 14:47:59.264,49,1043,1043,1043,1043,226,226,226,150,197,197,197,184
1367724,2025-07-10 14:47:59.264,50,130,130,130,130,150,150,150,150,184,184,184,184
1367724,2025-07-10 14:47:59.264,51,130,130,130,130,150,150,150,227,184,184,184,184
1367724,2025-07-10 14:47:59.264,52,978,978,978,978,227,227,227,227,184,184,191,191
1367724,2025-07-10 14:47:59.264,53,978,978,978,978,227,227,227,150,191,191,191,191
1367724,2025-07-10 14:47:59.264,54,141,141,141,141,150,150,150,150,191,191,191,191
1367724,2025-07-10 14:47:59.264,55,141,141,141,141,150,150,150,227,194,194,194,194
1367724,2025-07-10 14:47:59.264,56,944,944,944,944,227,227,227,227,194,194,194,194
1367724,2025-07-10 14:47:59.264,57,944,944,944,944,227,227,227,150,194,194,184,184
1367724,2025-07-10 14:47:59.264,58,168,168,168,168,150,150,150,150,184,184,184,184
1367724,2025-07-10 14:47:59.264,59,168,168,168,168,150,150,150,227,184,184,184,184
1367724,2025-07-10 14:47:59.264,60,930,930,930,930,227,227,227,227,194,194,194,194
1367724,2025-07-10 14:47:59.264,61,930,930,930,930,227,227,227,150,194,194,194,194
1367724,2025-07-10 14:47:59.264,62,181,181,181,181,150,150,150,150,194,194,189,189
1367724,2025-07-10 14:47:59.264,63,181,181,181,181,150,150,150,227,189,189,189,189
1367724,2025-07-10 14:47:59.264,64,910,910,910,910,227,227,227,227,189,189,189,189
1367724,2025-07-10 14:47:59.264,65,910,910,910,910,227,227,227,150,187,187,187,187
1367724,2025-07-10 14:47:59.264,66,192,192,192,192,150,150,150,150,187,187,187,187
1367724,2025-07-10 14:47:59.264,67,192,192,192,192,150,150,150,227,187,187,197,197
1367724,2025-07-10 14:47:59.264,68,894,894,894,894,227,227,227,227,197,197,197,197
1367724,2025-07-10 14:47:59.264,69,894,894,894,894,227,227,227,151,197,197,197,197
1367724,2025-07-10 14:47:59.264,70,219,219,219,219,151,151,151,151,185,185,185,185
1367724,2025-07-10 14:47:59.264,71,219,219,219,219,151,151,151,227,185,185,185,185
1367724,2025-07-10 14:47:59.264,72,872,872,872,872,227,227,227,227,185,185,190,190
1367724,2025-07-10 14:47:59.264,73,872,872,872,872,227,227,227,151,190,190,190,190
1367724,2025-07-10 14:47:59.264,74,240,240,240,240,151,151,151,151,190,190,190,190
1367724,2025-07-10 14:47:59.264,75,240,240,240,240,151,151,151,227,195,195,195,195
1367724,2025-07-10 14:47:59.264,76,845,845,845,845,227,227,227,227,195,195,195,195
1367724,2025-07-10 14:47:59.264,77,845,845,845,845,227,227,227,152,195,195,184,184
1367724,2025-07-10 14:47:59.264,78,257,257,257,257,152,152,152,152,184,184,184,184
1367724,2025-07-10 14:47:59.264,79,257,257,257,257,152,152,152,227,184,184,184,184
1367724,2025-07-10 14:47:59.264,80,815,815,815,815,227,227,227,227,192,192,192,192
1367724,2025-07-10 14:47:59.264,81,815,815,815,815,227,227,227,152,192,192,192,192
1367724,2025-07-10 14:47:59.264,82,283,283,283,283,152,152,152,152,192,192,192,192
1367724,2025-07-10 14:47:59.264,83,283,283,283,283,152,152,152,227,192,192,192,192
1367724,2025-07-10 14:47:59.264,84,790,790,790,790,227,227,227,227,192,192,192,192
1367724,2025-07-10 14:47:59.264,85,790,790,790,790,227,227,227,152,185,185,185,185
1367724,2025-07-10 14:47:59.264,86,302,302,302,302,152,152,152,152,185,185,185,185
1367724,2025-07-10 14:47:59.264,87,302,302,302,302,152,152,152,227,185,185,196,196
1367724,2025-07-10 14:47:59.264,88,771,771,771,771,227,227,227,227,196,196,196,196
1367724,2025-07-10 14:47:59.264,89,771,771,771,771,227,227,227,153,196,196,196,196
1367724,2025-07-10 14:47:59.264,90,322,322,322,322,153,153,153,153,186,186,186,186
1367724,2025-07-10 14:47:59.264,91,322,322,322,322,153,153,153,227,186,186,186,186
1367724,2025-07-10 14:47:59.264,92,759,759,759,759,227,227,227,227,186,186,189,189
1367724,2025-07-10 14:47:59.264,93,759,759,759,759,227,227,227,153,189,189,189,189
1367724,2025-07-10 14:47:59.264,94,325,325,325,325,153,153,153,153,189,189,189,189
1367724,2025-07-10 14:47:59.264,95,325,325,325,325,153,153,153,226,197,197,197,197
1367724,2025-07-10 14:47:59.264,96,750,750,750,750,226,226,226,226,197,197,197,197
1367724,2025-07-10 14:47:59.264,97,750,750,750,750,226,226,226,153,197,197,184,184
1367724,2025-07-10 14:47:59.264,98,335,335,335,335,153,153,153,153,184,184,184,184
1367724,2025-07-10 14:47:59.264,99,335,335,335,335,153,153,153,226,184,184,184,184
1367724,2025-07-10 14:47:59.264,100,723,723,723,723,226,226,226,226,192,192,192,192
1367724,2025-07-10 14:47:59.264,101,723,723,723,723,226,226,226,153,192,192,192,192
1367724,2025-07-10 14:47:59.264,102,368,368,368,368,153,153,153,153,192,192,194,194
1367724,2025-07-10 14:47:59.264,103,368,368,368,368,153,153,153,226,194,194,194,194
1367724,2025-07-10 14:47:59.264,104,694,694,694,694,226,226,226,226,194,194,194,194
1367724,2025-07-10 14:47:59.264,105,694,694,694,694,226,226,226,154,183,183,183,183
1367724,2025-07-10 14:47:59.264,106,397,397,397,397,154,154,154,154,183,183,183,183
1367724,2025-07-10 14:47:59.264,107,397,397,397,397,154,154,154,226,183,183,195,195
1367724,2025-07-10 14:47:59.264,108,675,675,675,675,226,226,226,226,195,195,195,195
1367724,2025-07-10 14:47:59.264,109,675,675,675,675,226,226,226,154,195,195,195,195
1367724,2025-07-10 14:47:59.264,110,414,414,414,414,154,154,154,154,186,186,186,186
1367724,2025-07-10 14:47:59.264,111,414,414,414,414,154,154,154,225,186,186,186,186
1367724,2025-07-10 14:47:59.264,112,658,658,658,658,225,225,225,225,186,186,188,188
1367724,2025-07-10 14:47:59.264,113,658,658,658,658,225,225,225,155,188,188,188,188
1367724,2025-07-10 14:47:59.264,114,429,429,429,429,155,155,155,155,188,188,188,188
1367724,2025-07-10 14:47:59.264,115,429,429,429,429,155,155,155,225,197,197,197,197
1367724,2025-07-10 14:47:59.264,116,646,646,646,646,225,225,225,225,197,197,197,197
1367724,2025-07-10 14:47:59.264,117,646,646,646,646,225,225,225,156,197,197,185,185
1367724,2025-07-10 14:47:59.264,118,447,447,447,447,156,156,156,156,185,185,185,185
1367724,2025-07-10 14:47:59.264,119,447,447,447,447,156,156,156,225,185,185,185,185
1367724,2025-07-10 14:47:59.264,120,633,633,633,633,225,225,225,225,191,191,191,191
1367724,2025-07-10 14:47:59.264,121,633,633,633,633,225,225,225,156,191,191,191,191
1367724,2025-07-10 14:47:59.264,122,458,458,458,458,156,156,156,156,191,191,195,195
1367724,2025-07-10 14:47:59.264,123,458,458,458,458,156,156,156,224,195,195,195,195
1367724,2025-07-10 14:47:59.264,124,610,610,610,610,224,224,224,224,195,195,195,195
1367724,2025-07-10 14:47:59.264,125,610,610,610,610,224,224,224,157,183,183,183,183
1367724,2025-07-10 14:47:59.264,126,481,481,481,481,157,157,157,157,183,183,183,183
1367724,2025-07-10 14:47:59.264,127,481,481,481,481,157,157,157,223,183,183,194,194
1367724,2025-07-10 14:47:59.264,128,583,583,583,583,223,223,223,223,194,194,194,194
1367724,2025-07-10 14:47:59.264,129,583,583,583,583,223,223,223,158,194,194,194,194
1367724,2025-07-10 14:47:59.264,130,517,517,517,517,158,158,158,158,188,188,188,188
1367724,2025-07-10 14:47:59.264,131,517,517,517,517,158,158,158,222,188,188,188,188
1367724,2025-07-10 14:47:59.264,132,559,559,559,559,222,222,222,222,188,188,187,187
1367724,2025-07-10 14:47:59.264,133,559,559,559,559,222,222,222,159,187,187,187,187
1367724,2025-07-10 14:47:59.264,134,534,534,534,534,159,159,159,159,187,187,187,187
1367724,2025-07-10 14:47:59.264,135,534,534,534,534,159,159,159,221,199,199,199,199
1367724,2025-07-10 14:47:59.264,136,537,537,537,537,221,221,221,221,199,199,199,199
1367724,2025-07-10 14:47:59.264,137,537,537,537,537,221,221,221,160,199,199,185,185
1367724,2025-07-10 14:47:59.264,138,554,554,554,554,160,160,160,160,185,185,185,185
1367724,2025-07-10 14:47:59.264,139,554,554,554,554,160,160,160,220,185,185,185,185
1367724,2025-07-10 14:47:59.264,140,522,522,522,522,220,220,220,220,191,191,191,191
1367724,2025-07-10 14:47:59.264,141,522,522,522,522,220,220,220,161,191,191,191,191
1367724,2025-07-10 14:47:59.264,142,569,569,569,569,161,161,161,161,191,191,196,196
1367724,2025-07-10 14:47:59.264,143,569,569,569,569,161,161,161,219,196,196,196,196
1367724,2025-07-10 14:47:59.264,144,514,514,514,514,219,219,219,219,196,196,196,196
1367724,2025-07-10 14:47:59.264,145,514,514,514,514,219,219,219,161,183,183,183,183
1367724,2025-07-10 14:47:59.264,146,577,577,577,577,161,161,161,161,183,183,183,183
1367724,2025-07-10 14:47:59.264,147,577,577,577,577,161,161,161,217,183,183,193,193
1367724,2025-07-10 14:47:59.264,148,499,499,499,499,217,217,217,217,193,193,193,193
1367724,2025-07-10 14:47:59.264,149,499,499,499,499,217,217,217,163,193,193,193,193
1367724,2025-07-10 14:47:59.264,150,608,608,608,608,163,163,163,163,190,190,190,190
1367724,2025-07-10 14:47:59.264,151,608,608,608,608,163,163,163,215,190,190,190,190
1367724,2025-07-10 14:47:59.264,152,468,468,468,468,215,215,215,215,190,190,185,185
1367724,2025-07-10 14:47:59.264,153,468,468,468,468,215,215,215,165,185,185,185,185
1367724,2025-07-10 14:47:59.264,154,635,635,635,635,165,165,165,165,185,185,185,185
1367724,2025-07-10 14:47:59.264,155,635,635,635,635,165,165,165,213,198,198,198,198
1367724,2025-07-10 14:47:59.264,156,442,442,442,442,213,213,213,213,198,198,198,198
1367724,2025-07-10 14:47:59.264,157,442,442,442,442,213,213,213,166,198,198,186,186
1367724,2025-07-10 14:47:59.264,158,662,662,662,662,166,166,166,166,186,186,186,186
1367724,2025-07-10 14:47:59.264,159,662,662,662,662,166,166,166,211,186,186,186,186
1367724,2025-07-10 14:47:59.264,160,419,419,419,419,211,211,211,211,190,190,190,190
1367724,2025-07-10 14:47:59.264,161,419,419,419,419,211,211,211,168,190,190,190,190
1367724,2025-07-10 14:47:59.264,162,681,681,681,681,168,168,168,168,190,190,196,196
1367724,2025-07-10 14:47:59.264,163,681,681,681,681,168,168,168,209,196,196,196,196
1367724,2025-07-10 14:47:59.264,164,401,401,401,401,209,209,209,209,196,196,196,196
1367724,2025-07-10 14:47:59.264,165,401,401,401,401,209,209,209,169,183,183,183,183
1367724,2025-07-10 14:47:59.264,166,700,700,700,700,169,169,169,169,183,183,183,183
1367724,2025-07-10 14:47:59.264,167,700,700,700,700,169,169,169,209,183,183,192,192
1367724,2025-07-10 14:47:59.264,168,393,393,393,393,209,209,209,209,192,192,192,192
1367724,2025-07-10 14:47:59.264,169,393,393,393,393,209,209,209,169,192,192,192,192
1367724,2025-07-10 14:47:59.264,170,710,710,710,710,169,169,169,169,192,192,192,192
1367724,2025-07-10 14:47:59.264,171,710,710,710,710,169,169,169,207,192,192,192,192
1367724,2025-07-10 14:47:59.264,172,376,376,376,376,207,207,207,207,192,192,184,184
1367724,2025-07-10 14:47:59.264,173,376,376,376,376,207,207,207,172,184,184,184,184
1367724,2025-07-10 14:47:59.264,174,725,725,725,725,172,172,172,172,184,184,184,184
1367724,2025-07-10 14:47:59.264,175,725,725,725,725,172,172,172,206,196,196,196,196
1367724,2025-07-10 14:47:59.264,176,352,352,352,352,206,206,206,206,196,196,196,196
1367724,2025-07-10 14:47:59.264,177,352,352,352,352,206,206,206,174,196,196,187,187
1367724,2025-07-10 14:47:59.264,178,760,760,760,760,174,174,174,174,187,187,187,187
1367724,2025-07-10 14:47:59.264,179,760,760,760,760,174,174,174,203,187,187,187,187
1367724,2025-07-10 14:47:59.264,180,320,320,320,320,203,203,203,203,189,189,189,189
1367724,2025-07-10 14:47:59.264,181,320,320,320,320,203,203,203,177,189,189,189,189
1367724,2025-07-10 14:47:59.264,182,786,786,786,786,177,177,177,177,189,189,197,197
1367724,2025-07-10 14:47:59.264,183,786,786,786,786,177,177,177,200,197,197,197,197
1367724,2025-07-10 14:47:59.264,184,289,289,289,289,200,200,200,200,197,197,197,197
1367724,2025-07-10 14:47:59.264,185,289,289,289,289,200,200,200,179,183,183,183,183
1367724,2025-07-10 14:47:59.264,186,808,808,808,808,179,179,179,179,183,183,183,183
1367724,2025-07-10 14:47:59.264,187,808,808,808,808,179,179,179,199,183,183,191,191
1367724,2025-07-10 14:47:59.264,188,272,272,272,272,199,199,199,199,191,191,191,191
1367724,2025-07-10 14:47:59.264,189,272,272,272,272,199,199,199,181,191,191,191,191
1367724,2025-07-10 14:47:59.264,190,825,825,825,825,181,181,181,181,194,194,194,194
1367724,2025-07-10 14:47:59.264,191,825,825,825,825,181,181,181,196,194,194,194,194
1367724,2025-07-10 14:47:59.264,192,244,244,244,244,196,196,196,196,194,194,184,184
1367724,2025-07-10 14:47:59.264,193,244,244,244,244,196,196,196,184,184,184,184,184
1367724,2025-07-10 14:47:59.264,194,850,850,850,850,184,184,184,184,184,184,184,184
1367724,2025-07-10 14:47:59.264,195,850,850,850,850,184,184,184,194,195,195,195,195
1367724,2025-07-10 14:47:59.264,196,214,214,214,214,194,194,194,194,195,195,195,195
1367724,2025-07-10 14:47:59.264,197,214,214,214,214,194,194,194,187,195,195,189,189
1367724,2025-07-10 14:47:59.264,198,882,882,882,882,187,187,187,187,189,189,189,189
1367724,2025-07-10 14:47:59.264,199,882,882,882,882,187,187,187,191,189,189,189,189
