esp32_timestamp,server_timestamp,sample_index,ch1,ch2,ch3,ch4,ch5,ch6,ch7,ch8,ch9,ch10,ch11,ch12
1210076,2025-07-10 14:45:21.530,0,164,164,164,164,167,167,167,167,177,177,177,177
1210076,2025-07-10 14:45:21.530,1,164,164,164,164,167,167,167,181,177,177,177,177
1210076,2025-07-10 14:45:21.530,2,185,185,185,185,181,181,181,181,177,177,194,194
1210076,2025-07-10 14:45:21.530,3,185,185,185,185,181,181,181,198,194,194,194,194
1210076,2025-07-10 14:45:21.530,4,192,192,192,192,198,198,198,198,194,194,194,194
1210076,2025-07-10 14:45:21.530,5,192,192,192,192,198,198,198,181,179,179,179,179
1210076,2025-07-10 14:45:21.530,6,186,186,186,186,181,181,181,181,179,179,179,179
1210076,2025-07-10 14:45:21.530,7,186,186,186,186,181,181,181,197,179,179,201,201
1210076,2025-07-10 14:45:21.530,8,191,191,191,191,197,197,197,197,201,201,201,201
1210076,2025-07-10 14:45:21.530,9,191,191,191,191,197,197,197,181,201,201,201,201
1210076,2025-07-10 14:45:21.530,10,188,188,188,188,181,181,181,181,181,181,181,181
1210076,2025-07-10 14:45:21.530,11,188,188,188,188,181,181,181,196,181,181,181,181
1210076,2025-07-10 14:45:21.530,12,190,190,190,190,196,196,196,196,181,181,189,189
1210076,2025-07-10 14:45:21.530,13,190,190,190,190,196,196,196,182,189,189,189,189
1210076,2025-07-10 14:45:21.530,14,189,189,189,189,182,182,182,182,189,189,189,189
1210076,2025-07-10 14:45:21.530,15,189,189,189,189,182,182,182,196,204,204,204,204
1210076,2025-07-10 14:45:21.530,16,189,189,189,189,196,196,196,196,204,204,204,204
1210076,2025-07-10 14:45:21.530,17,189,189,189,189,196,196,196,182,204,204,178,178
1210076,2025-07-10 14:45:21.530,18,191,191,191,191,182,182,182,182,178,178,178,178
1210076,2025-07-10 14:45:21.530,19,191,191,191,191,182,182,182,195,178,178,178,178
1210076,2025-07-10 14:45:21.530,20,187,187,187,187,195,195,195,195,196,196,196,196
1210076,2025-07-10 14:45:21.530,21,187,187,187,187,195,195,195,183,196,196,196,196
1210076,2025-07-10 14:45:21.530,22,191,191,191,191,183,183,183,183,196,196,196,196
1210076,2025-07-10 14:45:21.530,23,191,191,191,191,183,183,183,195,196,196,196,196
1210076,2025-07-10 14:45:21.530,24,186,186,186,186,195,195,195,195,196,196,196,196
1210076,2025-07-10 14:45:21.530,25,186,186,186,186,195,195,195,183,178,178,178,178
1210076,2025-07-10 14:45:21.530,26,192,192,192,192,183,183,183,183,178,178,178,178
1210076,2025-07-10 14:45:21.530,27,192,192,192,192,183,183,183,194,178,178,200,200
1210076,2025-07-10 14:45:21.530,28,186,186,186,186,194,194,194,194,200,200,200,200
1210076,2025-07-10 14:45:21.530,29,186,186,186,186,194,194,194,184,200,200,200,200
1210076,2025-07-10 14:45:21.530,30,194,194,194,194,184,184,184,184,182,182,182,182
1210076,2025-07-10 14:45:21.530,31,194,194,194,194,184,184,184,193,182,182,182,182
1210076,2025-07-10 14:45:21.530,32,183,183,183,183,193,193,193,193,182,182,187,187
1210076,2025-07-10 14:45:21.530,33,183,183,183,183,193,193,193,184,187,187,187,187
1210076,2025-07-10 14:45:21.530,34,196,196,196,196,184,184,184,184,187,187,187,187
1210076,2025-07-10 14:45:21.530,35,196,196,196,196,184,184,184,192,205,205,205,205
1210076,2025-07-10 14:45:21.530,36,182,182,182,182,192,192,192,192,205,205,205,205
1210076,2025-07-10 14:45:21.530,37,182,182,182,182,192,192,192,185,205,205,179,179
1210076,2025-07-10 14:45:21.530,38,197,197,197,197,185,185,185,185,179,179,179,179
1210076,2025-07-10 14:45:21.530,39,197,197,197,197,185,185,185,191,179,179,179,179
1210076,2025-07-10 14:45:21.530,40,181,181,181,181,191,191,191,191,195,195,195,195
1210076,2025-07-10 14:45:21.530,41,181,181,181,181,191,191,191,186,195,195,195,195
1210076,2025-07-10 14:45:21.530,42,199,199,199,199,186,186,186,186,195,195,199,199
1210076,2025-07-10 14:45:21.530,43,199,199,199,199,186,186,186,190,199,199,199,199
1210076,2025-07-10 14:45:21.530,44,180,180,180,180,190,190,190,190,199,199,199,199
1210076,2025-07-10 14:45:21.530,45,180,180,180,180,190,190,190,187,177,177,177,177
1210076,2025-07-10 14:45:21.530,46,200,200,200,200,187,187,187,187,177,177,177,177
1210076,2025-07-10 14:45:21.530,47,200,200,200,200,187,187,187,189,177,177,198,198
1210076,2025-07-10 14:45:21.530,48,179,179,179,179,189,189,189,189,198,198,198,198
1210076,2025-07-10 14:45:21.530,49,179,179,179,179,189,189,189,188,198,198,198,198
1210076,2025-07-10 14:45:21.530,50,201,201,201,201,188,188,188,188,186,186,186,186
1210076,2025-07-10 14:45:21.530,51,201,201,201,201,188,188,188,190,186,186,186,186
1210076,2025-07-10 14:45:21.530,52,178,178,178,178,190,190,190,190,186,186,184,184
1210076,2025-07-10 14:45:21.530,53,178,178,178,178,190,190,190,188,184,184,184,184
1210076,2025-07-10 14:45:21.530,54,202,202,202,202,188,188,188,188,184,184,184,184
1210076,2025-07-10 14:45:21.530,55,202,202,202,202,188,188,188,189,205,205,205,205
1210076,2025-07-10 14:45:21.530,56,176,176,176,176,189,189,189,189,205,205,205,205
1210076,2025-07-10 14:45:21.530,57,176,176,176,176,189,189,189,191,205,205,180,180
1210076,2025-07-10 14:45:21.530,58,205,205,205,205,191,191,191,191,180,180,180,180
1210076,2025-07-10 14:45:21.530,59,205,205,205,205,191,191,191,187,180,180,180,180
1210076,2025-07-10 14:45:21.530,60,174,174,174,174,187,187,187,187,194,194,194,194
1210076,2025-07-10 14:45:21.530,61,174,174,174,174,187,187,187,192,194,194,194,194
1210076,2025-07-10 14:45:21.530,62,206,206,206,206,192,192,192,192,194,194,202,202
1210076,2025-07-10 14:45:21.530,63,206,206,206,206,192,192,192,186,202,202,202,202
1210076,2025-07-10 14:45:21.530,64,173,173,173,173,186,186,186,186,202,202,202,202
1210076,2025-07-10 14:45:21.530,65,173,173,173,173,186,186,186,193,177,177,177,177
1210076,2025-07-10 14:45:21.530,66,208,208,208,208,193,193,193,193,177,177,177,177
1210076,2025-07-10 14:45:21.530,67,208,208,208,208,193,193,193,185,177,177,196,196
1210076,2025-07-10 14:45:21.530,68,171,171,171,171,185,185,185,185,196,196,196,196
1210076,2025-07-10 14:45:21.530,69,171,171,171,171,185,185,185,193,196,196,196,196
1210076,2025-07-10 14:45:21.530,70,209,209,209,209,193,193,193,193,190,190,190,190
1210076,2025-07-10 14:45:21.530,71,209,209,209,209,193,193,193,184,190,190,190,190
1210076,2025-07-10 14:45:21.530,72,170,170,170,170,184,184,184,184,190,190,181,181
1210076,2025-07-10 14:45:21.530,73,170,170,170,170,184,184,184,194,181,181,181,181
1210076,2025-07-10 14:45:21.530,74,210,210,210,210,194,194,194,194,181,181,181,181
1210076,2025-07-10 14:45:21.530,75,210,210,210,210,194,194,194,184,204,204,204,204
1210076,2025-07-10 14:45:21.530,76,170,170,170,170,184,184,184,184,204,204,204,204
1210076,2025-07-10 14:45:21.530,77,170,170,170,170,184,184,184,195,204,204,181,181
1210076,2025-07-10 14:45:21.530,78,210,210,210,210,195,195,195,195,181,181,181,181
1210076,2025-07-10 14:45:21.530,79,210,210,210,210,195,195,195,184,181,181,181,181
1210076,2025-07-10 14:45:21.530,80,170,170,170,170,184,184,184,184,193,193,193,193
1210076,2025-07-10 14:45:21.530,81,170,170,170,170,184,184,184,196,193,193,193,193
1210076,2025-07-10 14:45:21.530,82,211,211,211,211,196,196,196,196,193,193,203,203
1210076,2025-07-10 14:45:21.530,83,211,211,211,211,196,196,196,182,203,203,203,203
1210076,2025-07-10 14:45:21.530,84,168,168,168,168,182,182,182,182,203,203,203,203
1210076,2025-07-10 14:45:21.530,85,168,168,168,168,182,182,182,197,177,177,177,177
1210076,2025-07-10 14:45:21.530,86,212,212,212,212,197,197,197,197,177,177,177,177
1210076,2025-07-10 14:45:21.530,87,212,212,212,212,197,197,197,181,177,177,195,195
1210076,2025-07-10 14:45:21.530,88,167,167,167,167,181,181,181,181,195,195,195,195
1210076,2025-07-10 14:45:21.530,89,167,167,167,167,181,181,181,199,195,195,195,195
1210076,2025-07-10 14:45:21.530,90,214,214,214,214,199,199,199,199,193,193,193,193
1210076,2025-07-10 14:45:21.530,91,214,214,214,214,199,199,199,180,193,193,193,193
1210076,2025-07-10 14:45:21.530,92,165,165,165,165,180,180,180,180,193,193,179,179
1210076,2025-07-10 14:45:21.530,93,165,165,165,165,180,180,180,200,179,179,179,179
1210076,2025-07-10 14:45:21.530,94,215,215,215,215,200,200,200,200,179,179,179,179
1210076,2025-07-10 14:45:21.530,95,215,215,215,215,200,200,200,179,202,202,202,202
1210076,2025-07-10 14:45:21.530,96,164,164,164,164,179,179,179,179,202,202,202,202
1210076,2025-07-10 14:45:21.530,97,164,164,164,164,179,179,179,200,202,202,184,184
1210076,2025-07-10 14:45:21.530,98,215,215,215,215,200,200,200,200,184,184,184,184
1210076,2025-07-10 14:45:21.530,99,215,215,215,215,200,200,200,178,184,184,184,184
1210076,2025-07-10 14:45:21.530,100,163,163,163,163,178,178,178,178,190,190,190,190
1210076,2025-07-10 14:45:21.530,101,163,163,163,163,178,178,178,201,190,190,190,190
1210076,2025-07-10 14:45:21.530,102,215,215,215,215,201,201,201,201,190,190,203,203
1210076,2025-07-10 14:45:21.530,103,215,215,215,215,201,201,201,178,203,203,203,203
1210076,2025-07-10 14:45:21.530,104,162,162,162,162,178,178,178,178,203,203,203,203
1210076,2025-07-10 14:45:21.530,105,162,162,162,162,178,178,178,202,178,178,178,178
1210076,2025-07-10 14:45:21.530,106,216,216,216,216,202,202,202,202,178,178,178,178
1210076,2025-07-10 14:45:21.530,107,216,216,216,216,202,202,202,177,178,178,194,194
1210076,2025-07-10 14:45:21.530,108,161,161,161,161,177,177,177,177,194,194,194,194
1210076,2025-07-10 14:45:21.530,109,161,161,161,161,177,177,177,202,194,194,194,194
1210076,2025-07-10 14:45:21.530,110,217,217,217,217,202,202,202,202,198,198,198,198
1210076,2025-07-10 14:45:21.530,111,217,217,217,217,202,202,202,175,198,198,198,198
1210076,2025-07-10 14:45:21.530,112,160,160,160,160,175,175,175,175,198,198,179,179
1210076,2025-07-10 14:45:21.530,113,160,160,160,160,175,175,175,203,179,179,179,179
1210076,2025-07-10 14:45:21.530,114,218,218,218,218,203,203,203,203,179,179,179,179
1210076,2025-07-10 14:45:21.530,115,218,218,218,218,203,203,203,174,200,200,200,200
1210076,2025-07-10 14:45:21.530,116,160,160,160,160,174,174,174,174,200,200,200,200
1210076,2025-07-10 14:45:21.530,117,160,160,160,160,174,174,174,203,200,200,189,189
1210076,2025-07-10 14:45:21.530,118,219,219,219,219,203,203,203,203,189,189,189,189
1210076,2025-07-10 14:45:21.530,119,219,219,219,219,203,203,203,174,189,189,189,189
1210076,2025-07-10 14:45:21.530,120,159,159,159,159,174,174,174,174,184,184,184,184
1210076,2025-07-10 14:45:21.530,121,159,159,159,159,174,174,174,204,184,184,184,184
1210076,2025-07-10 14:45:21.530,122,220,220,220,220,204,204,204,204,184,184,203,203
1210076,2025-07-10 14:45:21.530,123,220,220,220,220,204,204,204,173,203,203,203,203
1210076,2025-07-10 14:45:21.530,124,159,159,159,159,173,173,173,173,203,203,203,203
1210076,2025-07-10 14:45:21.530,125,159,159,159,159,173,173,173,204,179,179,179,179
1210076,2025-07-10 14:45:21.530,126,220,220,220,220,204,204,204,204,179,179,179,179
1210076,2025-07-10 14:45:21.530,127,220,220,220,220,204,204,204,172,179,179,193,193
1210076,2025-07-10 14:45:21.530,128,159,159,159,159,172,172,172,172,193,193,193,193
1210076,2025-07-10 14:45:21.530,129,159,159,159,159,172,172,172,205,193,193,193,193
1210076,2025-07-10 14:45:21.530,130,220,220,220,220,205,205,205,205,201,201,201,201
1210076,2025-07-10 14:45:21.530,131,220,220,220,220,205,205,205,171,201,201,201,201
1210076,2025-07-10 14:45:21.530,132,158,158,158,158,171,171,171,171,201,201,179,179
1210076,2025-07-10 14:45:21.530,133,158,158,158,158,171,171,171,205,179,179,179,179
1210076,2025-07-10 14:45:21.530,134,220,220,220,220,205,205,205,205,179,179,179,179
1210076,2025-07-10 14:45:21.530,135,220,220,220,220,205,205,205,171,198,198,198,198
1210076,2025-07-10 14:45:21.530,136,158,158,158,158,171,171,171,171,198,198,198,198
1210076,2025-07-10 14:45:21.530,137,158,158,158,158,171,171,171,205,198,198,193,193
1210076,2025-07-10 14:45:21.530,138,220,220,220,220,205,205,205,205,193,193,193,193
1210076,2025-07-10 14:45:21.530,139,220,220,220,220,205,205,205,170,193,193,193,193
1210076,2025-07-10 14:45:21.530,140,158,158,158,158,170,170,170,170,180,180,180,180
1210076,2025-07-10 14:45:21.530,141,158,158,158,158,170,170,170,206,180,180,180,180
1210076,2025-07-10 14:45:21.530,142,220,220,220,220,206,206,206,206,180,180,201,201
1210076,2025-07-10 14:45:21.530,143,220,220,220,220,206,206,206,170,201,201,201,201
1210076,2025-07-10 14:45:21.530,144,158,158,158,158,170,170,170,170,201,201,201,201
1210076,2025-07-10 14:45:21.530,145,158,158,158,158,170,170,170,206,181,181,181,181
1210076,2025-07-10 14:45:21.530,146,221,221,221,221,206,206,206,206,181,181,181,181
1210076,2025-07-10 14:45:21.530,147,221,221,221,221,206,206,206,170,181,181,190,190
1210076,2025-07-10 14:45:21.530,148,158,158,158,158,170,170,170,170,190,190,190,190
1210076,2025-07-10 14:45:21.530,149,158,158,158,158,170,170,170,206,190,190,190,190
1210076,2025-07-10 14:45:21.530,150,220,220,220,220,206,206,206,206,203,203,203,203
1210076,2025-07-10 14:45:21.530,151,220,220,220,220,206,206,206,169,203,203,203,203
1210076,2025-07-10 14:45:21.530,152,158,158,158,158,169,169,169,169,203,203,178,178
1210076,2025-07-10 14:45:21.530,153,158,158,158,158,169,169,169,207,178,178,178,178
1210076,2025-07-10 14:45:21.530,154,220,220,220,220,207,207,207,207,178,178,178,178
1210076,2025-07-10 14:45:21.530,155,220,220,220,220,207,207,207,168,197,197,197,197
1210076,2025-07-10 14:45:21.530,156,159,159,159,159,168,168,168,168,197,197,197,197
1210076,2025-07-10 14:45:21.530,157,159,159,159,159,168,168,168,208,197,197,196,196
1210076,2025-07-10 14:45:21.530,158,220,220,220,220,208,208,208,208,196,196,196,196
1210076,2025-07-10 14:45:21.530,159,220,220,220,220,208,208,208,168,196,196,196,196
1210076,2025-07-10 14:45:21.530,160,160,160,160,160,168,168,168,168,178,178,178,178
1210076,2025-07-10 14:45:21.530,161,160,160,160,160,168,168,168,208,178,178,178,178
1210076,2025-07-10 14:45:21.530,162,219,219,219,219,208,208,208,208,178,178,199,199
1210076,2025-07-10 14:45:21.530,163,219,219,219,219,208,208,208,168,199,199,199,199
1210076,2025-07-10 14:45:21.530,164,161,161,161,161,168,168,168,168,199,199,199,199
1210076,2025-07-10 14:45:21.530,165,161,161,161,161,168,168,168,208,183,183,183,183
1210076,2025-07-10 14:45:21.530,166,218,218,218,218,208,208,208,208,183,183,183,183
1210076,2025-07-10 14:45:21.530,167,218,218,218,218,208,208,208,168,183,183,187,187
1210076,2025-07-10 14:45:21.530,168,162,162,162,162,168,168,168,168,187,187,187,187
1210076,2025-07-10 14:45:21.530,169,162,162,162,162,168,168,168,208,187,187,187,187
1210076,2025-07-10 14:45:21.530,170,218,218,218,218,208,208,208,208,205,205,205,205
1210076,2025-07-10 14:45:21.530,171,218,218,218,218,208,208,208,168,205,205,205,205
1210076,2025-07-10 14:45:21.530,172,162,162,162,162,168,168,168,168,205,205,179,179
1210076,2025-07-10 14:45:21.530,173,162,162,162,162,168,168,168,208,179,179,179,179
1210076,2025-07-10 14:45:21.530,174,217,217,217,217,208,208,208,208,179,179,179,179
1210076,2025-07-10 14:45:21.530,175,217,217,217,217,208,208,208,168,195,195,195,195
1210076,2025-07-10 14:45:21.530,176,163,163,163,163,168,168,168,168,195,195,195,195
1210076,2025-07-10 14:45:21.530,177,163,163,163,163,168,168,168,208,195,195,199,199
1210076,2025-07-10 14:45:21.530,178,216,216,216,216,208,208,208,208,199,199,199,199
1210076,2025-07-10 14:45:21.530,179,216,216,216,216,208,208,208,168,199,199,199,199
1210076,2025-07-10 14:45:21.530,180,164,164,164,164,168,168,168,168,177,177,177,177
1210076,2025-07-10 14:45:21.530,181,164,164,164,164,168,168,168,208,177,177,177,177
1210076,2025-07-10 14:45:21.530,182,216,216,216,216,208,208,208,208,177,177,198,198
1210076,2025-07-10 14:45:21.530,183,216,216,216,216,208,208,208,168,198,198,198,198
1210076,2025-07-10 14:45:21.530,184,166,166,166,166,168,168,168,168,198,198,198,198
1210076,2025-07-10 14:45:21.530,185,166,166,166,166,168,168,168,208,186,186,186,186
1210076,2025-07-10 14:45:21.530,186,215,215,215,215,208,208,208,208,186,186,186,186
1210076,2025-07-10 14:45:21.530,187,215,215,215,215,208,208,208,169,186,186,184,184
1210076,2025-07-10 14:45:21.530,188,167,167,167,167,169,169,169,169,184,184,184,184
1210076,2025-07-10 14:45:21.530,189,167,167,167,167,169,169,169,208,184,184,184,184
1210076,2025-07-10 14:45:21.530,190,213,213,213,213,208,208,208,208,205,205,205,205
1210076,2025-07-10 14:45:21.530,191,213,213,213,213,208,208,208,169,205,205,205,205
1210076,2025-07-10 14:45:21.530,192,167,167,167,167,169,169,169,169,205,205,180,180
1210076,2025-07-10 14:45:21.530,193,167,167,167,167,169,169,169,208,180,180,180,180
1210076,2025-07-10 14:45:21.530,194,213,213,213,213,208,208,208,208,180,180,180,180
1210076,2025-07-10 14:45:21.530,195,213,213,213,213,208,208,208,169,194,194,194,194
1210076,2025-07-10 14:45:21.530,196,169,169,169,169,169,169,169,169,194,194,194,194
1210076,2025-07-10 14:45:21.530,197,169,169,169,169,169,169,169,208,194,194,201,201
1210076,2025-07-10 14:45:21.530,198,212,212,212,212,208,208,208,208,201,201,201,201
1210076,2025-07-10 14:45:21.530,199,212,212,212,212,208,208,208,170,201,201,201,201
1211096,2025-07-10 14:45:22.554,0,169,169,169,169,170,170,170,170,177,177,177,177
1211096,2025-07-10 14:45:22.554,1,169,169,169,169,170,170,170,178,177,177,177,177
1211096,2025-07-10 14:45:22.554,2,181,181,181,181,178,178,178,178,177,177,189,189
1211096,2025-07-10 14:45:22.554,3,181,181,181,181,178,178,178,203,189,189,189,189
1211096,2025-07-10 14:45:22.554,4,198,198,198,198,203,203,203,203,189,189,189,185
1211096,2025-07-10 14:45:22.554,5,198,198,198,198,203,203,203,178,185,185,185,185
1211096,2025-07-10 14:45:22.554,6,182,182,182,182,178,178,178,178,185,185,185,185
1211096,2025-07-10 14:45:22.554,7,182,182,182,182,178,178,178,202,185,185,202,202
1211096,2025-07-10 14:45:22.554,8,197,197,197,197,202,202,202,202,202,202,202,202
1211096,2025-07-10 14:45:22.554,9,197,197,197,197,202,202,202,179,202,202,202,202
1211096,2025-07-10 14:45:22.554,10,183,183,183,183,179,179,179,179,179,179,179,179
1211096,2025-07-10 14:45:22.554,11,183,183,183,183,179,179,179,201,179,179,179,179
1211096,2025-07-10 14:45:22.554,12,196,196,196,196,201,201,201,201,179,179,192,192
1211096,2025-07-10 14:45:22.554,13,196,196,196,196,201,201,201,179,192,192,192,192
1211096,2025-07-10 14:45:22.554,14,184,184,184,184,179,179,179,179,192,192,192,192
1211096,2025-07-10 14:45:22.554,15,184,184,184,184,179,179,179,200,201,201,201,201
1211096,2025-07-10 14:45:22.554,16,195,195,195,195,200,200,200,200,201,201,201,201
1211096,2025-07-10 14:45:22.554,17,195,195,195,195,200,200,200,180,201,201,179,179
1211096,2025-07-10 14:45:22.554,18,184,184,184,184,180,180,180,180,179,179,179,179
1211096,2025-07-10 14:45:22.554,19,184,184,184,184,180,180,180,199,179,179,179,179
1211096,2025-07-10 14:45:22.554,20,194,194,194,194,199,199,199,199,197,197,197,197
1211096,2025-07-10 14:45:22.554,21,194,194,194,194,199,199,199,180,197,197,197,197
1211096,2025-07-10 14:45:22.554,22,185,185,185,185,180,180,180,180,197,197,192,192
1211096,2025-07-10 14:45:22.554,23,185,185,185,185,180,180,180,199,192,192,192,192
1211096,2025-07-10 14:45:22.554,24,194,194,194,194,199,199,199,199,192,192,192,181
1211096,2025-07-10 14:45:22.554,25,194,194,194,194,199,199,199,180,181,181,181,181
1211096,2025-07-10 14:45:22.554,26,185,185,185,185,180,180,180,180,181,181,181,181
1211096,2025-07-10 14:45:22.554,27,185,185,185,185,180,180,180,199,181,181,201,201
1211096,2025-07-10 14:45:22.554,28,193,193,193,193,199,199,199,199,201,201,201,201
1211096,2025-07-10 14:45:22.554,29,193,193,193,193,199,199,199,181,201,201,201,201
1211096,2025-07-10 14:45:22.554,30,186,186,186,186,181,181,181,181,181,181,181,181
1211096,2025-07-10 14:45:22.554,31,186,186,186,186,181,181,181,198,181,181,181,181
1211096,2025-07-10 14:45:22.554,32,192,192,192,192,198,198,198,198,181,181,191,191
1211096,2025-07-10 14:45:22.554,33,192,192,192,192,198,198,198,181,191,191,191,191
1211096,2025-07-10 14:45:22.554,34,187,187,187,187,181,181,181,181,191,191,191,191
1211096,2025-07-10 14:45:22.554,35,187,187,187,187,181,181,181,197,202,202,202,202
1211096,2025-07-10 14:45:22.554,36,190,190,190,190,197,197,197,197,202,202,202,202
1211096,2025-07-10 14:45:22.554,37,190,190,190,190,197,197,197,181,202,202,179,179
1211096,2025-07-10 14:45:22.554,38,188,188,188,188,181,181,181,181,179,179,179,179
1211096,2025-07-10 14:45:22.554,39,188,188,188,188,181,181,181,196,179,179,179,179
1211096,2025-07-10 14:45:22.554,40,189,189,189,189,196,196,196,196,196,196,196,196
1211096,2025-07-10 14:45:22.554,41,189,189,189,189,196,196,196,182,196,196,196,196
1211096,2025-07-10 14:45:22.554,42,189,189,189,189,182,182,182,182,196,196,195,195
1211096,2025-07-10 14:45:22.554,43,189,189,189,189,182,182,182,196,195,195,195,195
1211096,2025-07-10 14:45:22.554,44,188,188,188,188,196,196,196,196,195,195,195,195
1211096,2025-07-10 14:45:22.554,45,188,188,188,188,196,196,196,182,179,179,179,179
1211096,2025-07-10 14:45:22.554,46,190,190,190,190,182,182,182,182,179,179,179,179
1211096,2025-07-10 14:45:22.554,47,190,190,190,190,182,182,182,195,179,179,201,201
1211096,2025-07-10 14:45:22.554,48,187,187,187,187,195,195,195,195,201,201,201,201
1211096,2025-07-10 14:45:22.554,49,187,187,187,187,195,195,195,182,201,201,201,201
1211096,2025-07-10 14:45:22.554,50,191,191,191,191,182,182,182,182,181,181,181,181
1211096,2025-07-10 14:45:22.554,51,191,191,191,191,182,182,182,195,181,181,181,181
1211096,2025-07-10 14:45:22.554,52,186,186,186,186,195,195,195,195,181,181,188,188
1211096,2025-07-10 14:45:22.554,53,186,186,186,186,195,195,195,183,188,188,188,188
1211096,2025-07-10 14:45:22.554,54,192,192,192,192,183,183,183,183,188,188,188,188
1211096,2025-07-10 14:45:22.554,55,192,192,192,192,183,183,183,195,204,204,204,204
1211096,2025-07-10 14:45:22.554,56,185,185,185,185,195,195,195,195,204,204,204,204
1211096,2025-07-10 14:45:22.554,57,185,185,185,185,195,195,195,183,204,204,179,179
1211096,2025-07-10 14:45:22.554,58,194,194,194,194,183,183,183,183,179,179,179,179
1211096,2025-07-10 14:45:22.554,59,194,194,194,194,183,183,183,193,179,179,179,179
1211096,2025-07-10 14:45:22.554,60,183,183,183,183,193,193,193,193,196,196,196,196
1211096,2025-07-10 14:45:22.554,61,183,183,183,183,193,193,193,184,196,196,196,196
1211096,2025-07-10 14:45:22.554,62,195,195,195,195,184,184,184,184,196,196,198,198
1211096,2025-07-10 14:45:22.554,63,195,195,195,195,184,184,184,192,198,198,198,198
1211096,2025-07-10 14:45:22.554,64,182,182,182,182,192,192,192,192,198,198,198,198
1211096,2025-07-10 14:45:22.554,65,182,182,182,182,192,192,192,185,177,177,177,177
1211096,2025-07-10 14:45:22.554,66,197,197,197,197,185,185,185,185,177,177,177,177
1211096,2025-07-10 14:45:22.554,67,197,197,197,197,185,185,185,191,177,177,198,198
1211096,2025-07-10 14:45:22.554,68,180,180,180,180,191,191,191,191,198,198,198,198
1211096,2025-07-10 14:45:22.554,69,180,180,180,180,191,191,191,186,198,198,198,198
1211096,2025-07-10 14:45:22.554,70,199,199,199,199,186,186,186,186,185,185,185,185
1211096,2025-07-10 14:45:22.554,71,199,199,199,199,186,186,186,190,185,185,185,185
1211096,2025-07-10 14:45:22.554,72,180,180,180,180,190,190,190,190,185,185,185,185
1211096,2025-07-10 14:45:22.554,73,180,180,180,180,190,190,190,187,185,185,185,185
1211096,2025-07-10 14:45:22.554,74,199,199,199,199,187,187,187,187,185,185,185,185
1211096,2025-07-10 14:45:22.554,75,199,199,199,199,187,187,187,190,205,205,205,205
1211096,2025-07-10 14:45:22.554,76,179,179,179,179,190,190,190,190,205,205,205,205
1211096,2025-07-10 14:45:22.554,77,179,179,179,179,190,190,190,187,205,205,180,180
1211096,2025-07-10 14:45:22.554,78,201,201,201,201,187,187,187,187,180,180,180,180
1211096,2025-07-10 14:45:22.554,79,201,201,201,201,187,187,187,189,180,180,180,180
1211096,2025-07-10 14:45:22.554,80,178,178,178,178,189,189,189,189,194,194,194,194
1211096,2025-07-10 14:45:22.554,81,178,178,178,178,189,189,189,189,194,194,194,194
1211096,2025-07-10 14:45:22.554,82,202,202,202,202,189,189,189,189,194,194,200,200
1211096,2025-07-10 14:45:22.554,83,202,202,202,202,189,189,189,188,200,200,200,200
1211096,2025-07-10 14:45:22.554,84,176,176,176,176,188,188,188,188,200,200,200,200
1211096,2025-07-10 14:45:22.554,85,176,176,176,176,188,188,188,190,176,176,176,176
1211096,2025-07-10 14:45:22.554,86,205,205,205,205,190,190,190,190,176,176,176,176
1211096,2025-07-10 14:45:22.554,87,205,205,205,205,190,190,190,187,176,176,197,197
1211096,2025-07-10 14:45:22.554,88,174,174,174,174,187,187,187,187,197,197,197,197
1211096,2025-07-10 14:45:22.554,89,174,174,174,174,187,187,187,192,197,197,197,197
1211096,2025-07-10 14:45:22.554,90,206,206,206,206,192,192,192,192,189,189,189,189
1211096,2025-07-10 14:45:22.554,91,206,206,206,206,192,192,192,186,189,189,189,189
1211096,2025-07-10 14:45:22.554,92,172,172,172,172,186,186,186,186,189,189,182,182
1211096,2025-07-10 14:45:22.554,93,172,172,172,172,186,186,186,193,182,182,182,182
1211096,2025-07-10 14:45:22.554,94,208,208,208,208,193,193,193,193,182,182,182,182
1211096,2025-07-10 14:45:22.554,95,208,208,208,208,193,193,193,185,204,204,204,204
1211096,2025-07-10 14:45:22.554,96,171,171,171,171,185,185,185,185,204,204,204,204
1211096,2025-07-10 14:45:22.554,97,171,171,171,171,185,185,185,193,204,204,181,181
1211096,2025-07-10 14:45:22.554,98,208,208,208,208,193,193,193,193,181,181,181,181
1211096,2025-07-10 14:45:22.554,99,208,208,208,208,193,193,193,185,181,181,181,181
1211096,2025-07-10 14:45:22.554,100,171,171,171,171,185,185,185,185,193,193,193,193
1211096,2025-07-10 14:45:22.554,101,171,171,171,171,185,185,185,194,193,193,193,193
1211096,2025-07-10 14:45:22.554,102,210,210,210,210,194,194,194,194,193,193,202,202
1211096,2025-07-10 14:45:22.554,103,210,210,210,210,194,194,194,184,202,202,202,202
1211096,2025-07-10 14:45:22.554,104,170,170,170,170,184,184,184,184,202,202,202,202
1211096,2025-07-10 14:45:22.554,105,170,170,170,170,184,184,184,196,177,177,177,177
1211096,2025-07-10 14:45:22.554,106,211,211,211,211,196,196,196,196,177,177,177,177
1211096,2025-07-10 14:45:22.554,107,211,211,211,211,196,196,196,183,177,177,195,195
1211096,2025-07-10 14:45:22.554,108,169,169,169,169,183,183,183,183,195,195,195,195
1211096,2025-07-10 14:45:22.554,109,169,169,169,169,183,183,183,197,195,195,195,195
1211096,2025-07-10 14:45:22.554,110,212,212,212,212,197,197,197,197,193,193,193,193
1211096,2025-07-10 14:45:22.554,111,212,212,212,212,197,197,197,182,193,193,193,193
1211096,2025-07-10 14:45:22.554,112,167,167,167,167,182,182,182,182,193,193,180,180
1211096,2025-07-10 14:45:22.554,113,167,167,167,167,182,182,182,198,180,180,180,180
1211096,2025-07-10 14:45:22.554,114,213,213,213,213,198,198,198,198,180,180,180,180
1211096,2025-07-10 14:45:22.554,115,213,213,213,213,198,198,198,180,202,202,202,202
1211096,2025-07-10 14:45:22.554,116,166,166,166,166,180,180,180,180,202,202,202,202
1211096,2025-07-10 14:45:22.554,117,166,166,166,166,180,180,180,199,202,202,183,183
1211096,2025-07-10 14:45:22.554,118,214,214,214,214,199,199,199,199,183,183,183,183
1211096,2025-07-10 14:45:22.554,119,214,214,214,214,199,199,199,179,183,183,183,183
1211096,2025-07-10 14:45:22.554,120,165,165,165,165,179,179,179,179,191,191,191,191
1211096,2025-07-10 14:45:22.554,121,165,165,165,165,179,179,179,200,191,191,191,191
1211096,2025-07-10 14:45:22.554,122,214,214,214,214,200,200,200,200,191,191,204,204
1211096,2025-07-10 14:45:22.554,123,214,214,214,214,200,200,200,179,204,204,204,204
1211096,2025-07-10 14:45:22.554,124,165,165,165,165,179,179,179,179,204,204,204,204
1211096,2025-07-10 14:45:22.554,125,165,165,165,165,179,179,179,200,178,178,178,178
1211096,2025-07-10 14:45:22.554,126,215,215,215,215,200,200,200,200,178,178,178,178
1211096,2025-07-10 14:45:22.554,127,215,215,215,215,200,200,200,178,178,178,195,195
1211096,2025-07-10 14:45:22.554,128,163,163,163,163,178,178,178,178,195,195,195,195
1211096,2025-07-10 14:45:22.554,129,163,163,163,163,178,178,178,201,195,195,195,195
1211096,2025-07-10 14:45:22.554,130,216,216,216,216,201,201,201,201,196,196,196,196
1211096,2025-07-10 14:45:22.554,131,216,216,216,216,201,201,201,177,196,196,196,196
1211096,2025-07-10 14:45:22.554,132,162,162,162,162,177,177,177,177,196,196,179,179
1211096,2025-07-10 14:45:22.554,133,162,162,162,162,177,177,177,202,179,179,179,179
1211096,2025-07-10 14:45:22.554,134,217,217,217,217,202,202,202,202,179,179,179,179
1211096,2025-07-10 14:45:22.554,135,217,217,217,217,202,202,202,176,200,200,200,200
1211096,2025-07-10 14:45:22.554,136,161,161,161,161,176,176,176,176,200,200,200,200
1211096,2025-07-10 14:45:22.554,137,161,161,161,161,176,176,176,202,200,200,188,188
1211096,2025-07-10 14:45:22.554,138,217,217,217,217,202,202,202,202,188,188,188,188
1211096,2025-07-10 14:45:22.554,139,217,217,217,217,202,202,202,175,188,188,188,188
1211096,2025-07-10 14:45:22.554,140,160,160,160,160,175,175,175,175,185,185,185,185
1211096,2025-07-10 14:45:22.554,141,160,160,160,160,175,175,175,204,185,185,185,185
1211096,2025-07-10 14:45:22.554,142,218,218,218,218,204,204,204,204,185,185,202,202
1211096,2025-07-10 14:45:22.554,143,218,218,218,218,204,204,204,174,202,202,202,202
1211096,2025-07-10 14:45:22.554,144,160,160,160,160,174,174,174,174,202,202,202,202
1211096,2025-07-10 14:45:22.554,145,160,160,160,160,174,174,174,204,179,179,179,179
1211096,2025-07-10 14:45:22.554,146,218,218,218,218,204,204,204,204,179,179,179,179
1211096,2025-07-10 14:45:22.554,147,218,218,218,218,204,204,204,173,179,179,193,193
1211096,2025-07-10 14:45:22.554,148,160,160,160,160,173,173,173,173,193,193,193,193
1211096,2025-07-10 14:45:22.554,149,160,160,160,160,173,173,173,204,193,193,193,193
1211096,2025-07-10 14:45:22.554,150,218,218,218,218,204,204,204,204,200,200,200,200
1211096,2025-07-10 14:45:22.554,151,218,218,218,218,204,204,204,173,200,200,200,200
1211096,2025-07-10 14:45:22.554,152,160,160,160,160,173,173,173,173,200,200,178,178
1211096,2025-07-10 14:45:22.554,153,160,160,160,160,173,173,173,205,178,178,178,178
1211096,2025-07-10 14:45:22.554,154,219,219,219,219,205,205,205,205,178,178,178,178
1211096,2025-07-10 14:45:22.554,155,219,219,219,219,205,205,205,172,199,199,199,199
1211096,2025-07-10 14:45:22.554,156,159,159,159,159,172,172,172,172,199,199,199,199
1211096,2025-07-10 14:45:22.554,157,159,159,159,159,172,172,172,205,199,199,191,191
1211096,2025-07-10 14:45:22.554,158,219,219,219,219,205,205,205,205,191,191,191,191
1211096,2025-07-10 14:45:22.554,159,219,219,219,219,205,205,205,172,191,191,191,191
1211096,2025-07-10 14:45:22.554,160,159,159,159,159,172,172,172,172,182,182,182,182
1211096,2025-07-10 14:45:22.554,161,159,159,159,159,172,172,172,205,182,182,182,182
1211096,2025-07-10 14:45:22.554,162,220,220,220,220,205,205,205,205,182,182,202,202
1211096,2025-07-10 14:45:22.554,163,220,220,220,220,205,205,205,170,202,202,202,202
1211096,2025-07-10 14:45:22.554,164,158,158,158,158,170,170,170,170,202,202,202,202
1211096,2025-07-10 14:45:22.554,165,158,158,158,158,170,170,170,206,180,180,180,180
1211096,2025-07-10 14:45:22.554,166,220,220,220,220,206,206,206,206,180,180,180,180
1211096,2025-07-10 14:45:22.554,167,220,220,220,220,206,206,206,170,180,180,191,191
1211096,2025-07-10 14:45:22.554,168,159,159,159,159,170,170,170,170,191,191,191,191
1211096,2025-07-10 14:45:22.554,169,159,159,159,159,170,170,170,206,191,191,191,191
1211096,2025-07-10 14:45:22.554,170,220,220,220,220,206,206,206,206,202,202,202,202
1211096,2025-07-10 14:45:22.554,171,220,220,220,220,206,206,206,170,202,202,202,202
1211096,2025-07-10 14:45:22.554,172,158,158,158,158,170,170,170,170,202,202,179,179
1211096,2025-07-10 14:45:22.554,173,158,158,158,158,170,170,170,206,179,179,179,179
1211096,2025-07-10 14:45:22.554,174,220,220,220,220,206,206,206,206,179,179,179,179
1211096,2025-07-10 14:45:22.554,175,220,220,220,220,206,206,206,170,197,197,197,197
1211096,2025-07-10 14:45:22.554,176,158,158,158,158,170,170,170,170,197,197,197,197
1211096,2025-07-10 14:45:22.554,177,158,158,158,158,170,170,170,206,197,197,195,195
1211096,2025-07-10 14:45:22.554,178,220,220,220,220,206,206,206,206,195,195,195,195
1211096,2025-07-10 14:45:22.554,179,220,220,220,220,206,206,206,169,195,195,195,195
1211096,2025-07-10 14:45:22.554,180,158,158,158,158,169,169,169,169,179,179,179,179
1211096,2025-07-10 14:45:22.554,181,158,158,158,158,169,169,169,207,179,179,179,179
1211096,2025-07-10 14:45:22.554,182,220,220,220,220,207,207,207,207,179,179,200,200
1211096,2025-07-10 14:45:22.554,183,220,220,220,220,207,207,207,169,200,200,200,200
1211096,2025-07-10 14:45:22.554,184,159,159,159,159,169,169,169,169,200,200,200,200
1211096,2025-07-10 14:45:22.554,185,159,159,159,159,169,169,169,207,181,181,181,181
1211096,2025-07-10 14:45:22.554,186,219,219,219,219,207,207,207,207,181,181,181,181
1211096,2025-07-10 14:45:22.554,187,219,219,219,219,207,207,207,168,181,181,189,189
1211096,2025-07-10 14:45:22.554,188,160,160,160,160,168,168,168,168,189,189,189,189
1211096,2025-07-10 14:45:22.554,189,160,160,160,160,168,168,168,208,189,189,189,189
1211096,2025-07-10 14:45:22.554,190,219,219,219,219,208,208,208,208,204,204,204,204
1211096,2025-07-10 14:45:22.554,191,219,219,219,219,208,208,208,168,204,204,204,204
1211096,2025-07-10 14:45:22.554,192,161,161,161,161,168,168,168,168,204,204,179,179
1211096,2025-07-10 14:45:22.554,193,161,161,161,161,168,168,168,208,179,179,179,179
1211096,2025-07-10 14:45:22.554,194,218,218,218,218,208,208,208,208,179,179,179,179
1211096,2025-07-10 14:45:22.554,195,218,218,218,218,208,208,208,168,196,196,196,196
1211096,2025-07-10 14:45:22.554,196,162,162,162,162,168,168,168,168,196,196,196,196
1211096,2025-07-10 14:45:22.554,197,162,162,162,162,168,168,168,208,196,196,198,198
1211096,2025-07-10 14:45:22.554,198,218,218,218,218,208,208,208,208,198,198,198,198
1211096,2025-07-10 14:45:22.554,199,218,218,218,218,208,208,208,168,198,198,198,198
1212117,2025-07-10 14:45:23.595,0,162,162,162,162,168,168,168,168,177,177,177,177
1212117,2025-07-10 14:45:23.595,1,162,162,162,162,168,168,168,179,177,177,177,177
1212117,2025-07-10 14:45:23.595,2,183,183,183,183,179,179,179,179,177,177,191,191
1212117,2025-07-10 14:45:23.595,3,183,183,183,183,179,179,179,201,191,191,191,191
1212117,2025-07-10 14:45:23.595,4,197,197,197,197,201,201,201,201,191,191,191,191
1212117,2025-07-10 14:45:23.595,5,197,197,197,197,201,201,201,179,182,182,182,182
1212117,2025-07-10 14:45:23.595,6,183,183,183,183,179,179,179,179,182,182,182,182
1212117,2025-07-10 14:45:23.595,7,183,183,183,183,179,179,179,199,182,182,202,202
1212117,2025-07-10 14:45:23.595,8,195,195,195,195,199,199,199,199,202,202,202,202
1212117,2025-07-10 14:45:23.595,9,195,195,195,195,199,199,199,180,202,202,202,202
1212117,2025-07-10 14:45:23.595,10,184,184,184,184,180,180,180,180,179,179,179,179
1212117,2025-07-10 14:45:23.595,11,184,184,184,184,180,180,180,199,179,179,179,179
1212117,2025-07-10 14:45:23.595,12,194,194,194,194,199,199,199,199,179,179,192,192
1212117,2025-07-10 14:45:23.595,13,194,194,194,194,199,199,199,180,192,192,192,192
1212117,2025-07-10 14:45:23.595,14,184,184,184,184,180,180,180,180,192,192,192,192
1212117,2025-07-10 14:45:23.595,15,184,184,184,184,180,180,180,199,202,202,202,202
1212117,2025-07-10 14:45:23.595,16,194,194,194,194,199,199,199,199,202,202,202,202
1212117,2025-07-10 14:45:23.595,17,194,194,194,194,199,199,199,180,202,202,179,179
1212117,2025-07-10 14:45:23.595,18,185,185,185,185,180,180,180,180,179,179,179,179
1212117,2025-07-10 14:45:23.595,19,185,185,185,185,180,180,180,198,179,179,179,179
1212117,2025-07-10 14:45:23.595,20,194,194,194,194,198,198,198,198,198,198,198,198
1212117,2025-07-10 14:45:23.595,21,194,194,194,194,198,198,198,180,198,198,198,198
1212117,2025-07-10 14:45:23.595,22,185,185,185,185,180,180,180,180,198,198,193,193
1212117,2025-07-10 14:45:23.595,23,185,185,185,185,180,180,180,198,193,193,193,193
1212117,2025-07-10 14:45:23.595,24,192,192,192,192,198,198,198,198,193,193,193,193
1212117,2025-07-10 14:45:23.595,25,192,192,192,192,198,198,198,181,180,180,180,180
1212117,2025-07-10 14:45:23.595,26,187,187,187,187,181,181,181,181,180,180,180,180
1212117,2025-07-10 14:45:23.595,27,187,187,187,187,181,181,181,197,180,180,200,200
1212117,2025-07-10 14:45:23.595,28,191,191,191,191,197,197,197,197,200,200,200,200
1212117,2025-07-10 14:45:23.595,29,191,191,191,191,197,197,197,181,200,200,200,200
1212117,2025-07-10 14:45:23.595,30,188,188,188,188,181,181,181,181,180,180,180,180
1212117,2025-07-10 14:45:23.595,31,188,188,188,188,181,181,181,197,180,180,180,180
1212117,2025-07-10 14:45:23.595,32,190,190,190,190,197,197,197,197,180,180,189,189
1212117,2025-07-10 14:45:23.595,33,190,190,190,190,197,197,197,182,189,189,189,189
1212117,2025-07-10 14:45:23.595,34,189,189,189,189,182,182,182,182,189,189,189,189
1212117,2025-07-10 14:45:23.595,35,189,189,189,189,182,182,182,196,204,204,204,204
1212117,2025-07-10 14:45:23.595,36,189,189,189,189,196,196,196,196,204,204,204,204
1212117,2025-07-10 14:45:23.595,37,189,189,189,189,196,196,196,182,204,204,179,179
1212117,2025-07-10 14:45:23.595,38,189,189,189,189,182,182,182,182,179,179,179,179
1212117,2025-07-10 14:45:23.595,39,189,189,189,189,182,182,182,195,179,179,179,179
1212117,2025-07-10 14:45:23.595,40,187,187,187,187,195,195,195,195,196,196,196,196
1212117,2025-07-10 14:45:23.595,41,187,187,187,187,195,195,195,183,196,196,196,196
1212117,2025-07-10 14:45:23.595,42,192,192,192,192,183,183,183,183,196,196,197,197
1212117,2025-07-10 14:45:23.595,43,192,192,192,192,183,183,183,195,197,197,197,197
1212117,2025-07-10 14:45:23.595,44,186,186,186,186,195,195,195,195,197,197,197,197
1212117,2025-07-10 14:45:23.595,45,186,186,186,186,195,195,195,183,178,178,178,178
1212117,2025-07-10 14:45:23.595,46,193,193,193,193,183,183,183,183,178,178,178,178
1212117,2025-07-10 14:45:23.595,47,193,193,193,193,183,183,183,194,178,178,199,199
1212117,2025-07-10 14:45:23.595,48,185,185,185,185,194,194,194,194,199,199,199,199
1212117,2025-07-10 14:45:23.595,49,185,185,185,185,194,194,194,183,199,199,199,199
1212117,2025-07-10 14:45:23.595,50,194,194,194,194,183,183,183,183,183,183,183,183
1212117,2025-07-10 14:45:23.595,51,194,194,194,194,183,183,183,193,183,183,183,183
1212117,2025-07-10 14:45:23.595,52,183,183,183,183,193,193,193,193,183,183,186,186
1212117,2025-07-10 14:45:23.595,53,183,183,183,183,193,193,193,185,186,186,186,186
1212117,2025-07-10 14:45:23.595,54,196,196,196,196,185,185,185,185,186,186,186,186
1212117,2025-07-10 14:45:23.595,55,196,196,196,196,185,185,185,192,205,205,205,205
1212117,2025-07-10 14:45:23.595,56,182,182,182,182,192,192,192,192,205,205,205,205
1212117,2025-07-10 14:45:23.595,57,182,182,182,182,192,192,192,186,205,205,179,179
1212117,2025-07-10 14:45:23.595,58,198,198,198,198,186,186,186,186,179,179,179,179
1212117,2025-07-10 14:45:23.595,59,198,198,198,198,186,186,186,190,179,179,179,179
1212117,2025-07-10 14:45:23.595,60,180,180,180,180,190,190,190,190,195,195,195,195
1212117,2025-07-10 14:45:23.595,61,180,180,180,180,190,190,190,187,195,195,195,195
1212117,2025-07-10 14:45:23.595,62,200,200,200,200,187,187,187,187,195,195,200,200
1212117,2025-07-10 14:45:23.595,63,200,200,200,200,187,187,187,190,200,200,200,200
1212117,2025-07-10 14:45:23.595,64,179,179,179,179,190,190,190,190,200,200,200,200
1212117,2025-07-10 14:45:23.595,65,179,179,179,179,190,190,190,188,177,177,177,177
1212117,2025-07-10 14:45:23.595,66,201,201,201,201,188,188,188,188,177,177,177,177
1212117,2025-07-10 14:45:23.595,67,201,201,201,201,188,188,188,190,177,177,198,198
1212117,2025-07-10 14:45:23.595,68,178,178,178,178,190,190,190,190,198,198,198,198
1212117,2025-07-10 14:45:23.595,69,178,178,178,178,190,190,190,188,198,198,198,198
1212117,2025-07-10 14:45:23.595,70,202,202,202,202,188,188,188,188,186,186,186,186
1212117,2025-07-10 14:45:23.595,71,202,202,202,202,188,188,188,188,186,186,186,186
1212117,2025-07-10 14:45:23.595,72,177,177,177,177,188,188,188,188,186,186,183,183
1212117,2025-07-10 14:45:23.595,73,177,177,177,177,188,188,188,189,183,183,183,183
1212117,2025-07-10 14:45:23.595,74,203,203,203,203,189,189,189,189,183,183,183,183
1212117,2025-07-10 14:45:23.595,75,203,203,203,203,189,189,189,188,205,205,205,205
1212117,2025-07-10 14:45:23.595,76,175,175,175,175,188,188,188,188,205,205,205,205
1212117,2025-07-10 14:45:23.595,77,175,175,175,175,188,188,188,191,205,205,180,180
1212117,2025-07-10 14:45:23.595,78,205,205,205,205,191,191,191,191,180,180,180,180
1212117,2025-07-10 14:45:23.595,79,205,205,205,205,191,191,191,187,180,180,180,180
1212117,2025-07-10 14:45:23.595,80,173,173,173,173,187,187,187,187,194,194,194,194
1212117,2025-07-10 14:45:23.595,81,173,173,173,173,187,187,187,192,194,194,194,194
1212117,2025-07-10 14:45:23.595,82,207,207,207,207,192,192,192,192,194,194,202,202
1212117,2025-07-10 14:45:23.595,83,207,207,207,207,192,192,192,185,202,202,202,202
1212117,2025-07-10 14:45:23.595,84,172,172,172,172,185,185,185,185,202,202,202,202
1212117,2025-07-10 14:45:23.595,85,172,172,172,172,185,185,185,193,177,177,177,177
1212117,2025-07-10 14:45:23.595,86,209,209,209,209,193,193,193,193,177,177,177,177
1212117,2025-07-10 14:45:23.595,87,209,209,209,209,193,193,193,185,177,177,196,196
1212117,2025-07-10 14:45:23.595,88,171,171,171,171,185,185,185,185,196,196,196,196
1212117,2025-07-10 14:45:23.595,89,171,171,171,171,185,185,185,194,196,196,196,196
1212117,2025-07-10 14:45:23.595,90,209,209,209,209,194,194,194,194,191,191,191,191
1212117,2025-07-10 14:45:23.595,91,209,209,209,209,194,194,194,184,191,191,191,191
1212117,2025-07-10 14:45:23.595,92,171,171,171,171,184,184,184,184,191,191,180,180
1212117,2025-07-10 14:45:23.595,93,171,171,171,171,184,184,184,195,180,180,180,180
1212117,2025-07-10 14:45:23.595,94,210,210,210,210,195,195,195,195,180,180,180,180
1212117,2025-07-10 14:45:23.595,95,210,210,210,210,195,195,195,183,204,204,204,204
1212117,2025-07-10 14:45:23.595,96,170,170,170,170,183,183,183,183,204,204,204,204
1212117,2025-07-10 14:45:23.595,97,170,170,170,170,183,183,183,196,204,204,181,181
1212117,2025-07-10 14:45:23.595,98,211,211,211,211,196,196,196,196,181,181,181,181
1212117,2025-07-10 14:45:23.595,99,211,211,211,211,196,196,196,183,181,181,181,181
1212117,2025-07-10 14:45:23.595,100,169,169,169,169,183,183,183,183,193,193,193,193
1212117,2025-07-10 14:45:23.595,101,169,169,169,169,183,183,183,197,193,193,193,193
1212117,2025-07-10 14:45:23.595,102,212,212,212,212,197,197,197,197,193,193,203,203
1212117,2025-07-10 14:45:23.595,103,212,212,212,212,197,197,197,182,203,203,203,203
1212117,2025-07-10 14:45:23.595,104,168,168,168,168,182,182,182,182,203,203,203,203
1212117,2025-07-10 14:45:23.595,105,168,168,168,168,182,182,182,198,177,177,177,177
1212117,2025-07-10 14:45:23.595,106,213,213,213,213,198,198,198,198,177,177,177,177
1212117,2025-07-10 14:45:23.595,107,213,213,213,213,198,198,198,180,177,177,195,195
1212117,2025-07-10 14:45:23.595,108,166,166,166,166,180,180,180,180,195,195,195,195
1212117,2025-07-10 14:45:23.595,109,166,166,166,166,180,180,180,199,195,195,195,195
1212117,2025-07-10 14:45:23.595,110,214,214,214,214,199,199,199,199,194,194,194,194
1212117,2025-07-10 14:45:23.595,111,214,214,214,214,199,199,199,179,194,194,194,194
1212117,2025-07-10 14:45:23.595,112,165,165,165,165,179,179,179,179,194,194,180,180
1212117,2025-07-10 14:45:23.595,113,165,165,165,165,179,179,179,200,180,180,180,180
1212117,2025-07-10 14:45:23.595,114,215,215,215,215,200,200,200,200,180,180,180,180
1212117,2025-07-10 14:45:23.595,115,215,215,215,215,200,200,200,179,202,202,202,202
1212117,2025-07-10 14:45:23.595,116,164,164,164,164,179,179,179,179,202,202,202,202
1212117,2025-07-10 14:45:23.595,117,164,164,164,164,179,179,179,200,202,202,184,184
1212117,2025-07-10 14:45:23.595,118,215,215,215,215,200,200,200,200,184,184,184,184
1212117,2025-07-10 14:45:23.595,119,215,215,215,215,200,200,200,178,184,184,184,184
1212117,2025-07-10 14:45:23.595,120,164,164,164,164,178,178,178,178,189,189,189,189
1212117,2025-07-10 14:45:23.595,121,164,164,164,164,178,178,178,201,189,189,189,189
1212117,2025-07-10 14:45:23.595,122,215,215,215,215,201,201,201,201,189,189,203,203
1212117,2025-07-10 14:45:23.595,123,215,215,215,215,201,201,201,177,203,203,203,203
1212117,2025-07-10 14:45:23.595,124,163,163,163,163,177,177,177,177,203,203,203,203
1212117,2025-07-10 14:45:23.595,125,163,163,163,163,177,177,177,202,178,178,178,178
1212117,2025-07-10 14:45:23.595,126,216,216,216,216,202,202,202,202,178,178,178,178
1212117,2025-07-10 14:45:23.595,127,216,216,216,216,202,202,202,176,178,178,194,194
1212117,2025-07-10 14:45:23.595,128,162,162,162,162,176,176,176,176,194,194,194,194
1212117,2025-07-10 14:45:23.595,129,162,162,162,162,176,176,176,202,194,194,194,194
1212117,2025-07-10 14:45:23.595,130,217,217,217,217,202,202,202,202,198,198,198,198
1212117,2025-07-10 14:45:23.595,131,217,217,217,217,202,202,202,175,198,198,198,198
1212117,2025-07-10 14:45:23.595,132,161,161,161,161,175,175,175,175,198,198,179,179
1212117,2025-07-10 14:45:23.595,133,161,161,161,161,175,175,175,203,179,179,179,179
1212117,2025-07-10 14:45:23.595,134,218,218,218,218,203,203,203,203,179,179,179,179
1212117,2025-07-10 14:45:23.595,135,218,218,218,218,203,203,203,174,200,200,200,200
1212117,2025-07-10 14:45:23.595,136,161,161,161,161,174,174,174,174,200,200,200,200
1212117,2025-07-10 14:45:23.595,137,161,161,161,161,174,174,174,204,200,200,189,189
1212117,2025-07-10 14:45:23.595,138,218,218,218,218,204,204,204,204,189,189,189,189
1212117,2025-07-10 14:45:23.595,139,218,218,218,218,204,204,204,173,189,189,189,189
1212117,2025-07-10 14:45:23.595,140,159,159,159,159,173,173,173,173,184,184,184,184
1212117,2025-07-10 14:45:23.595,141,159,159,159,159,173,173,173,204,184,184,184,184
1212117,2025-07-10 14:45:23.595,142,218,218,218,218,204,204,204,204,184,184,202,202
1212117,2025-07-10 14:45:23.595,143,218,218,218,218,204,204,204,172,202,202,202,202
1212117,2025-07-10 14:45:23.595,144,159,159,159,159,172,172,172,172,202,202,202,202
1212117,2025-07-10 14:45:23.595,145,159,159,159,159,172,172,172,204,179,179,179,179
1212117,2025-07-10 14:45:23.595,146,219,219,219,219,204,204,204,204,179,179,179,179
1212117,2025-07-10 14:45:23.595,147,219,219,219,219,204,204,204,172,179,179,193,193
1212117,2025-07-10 14:45:23.595,148,160,160,160,160,172,172,172,172,193,193,193,193
1212117,2025-07-10 14:45:23.595,149,160,160,160,160,172,172,172,205,193,193,193,193
1212117,2025-07-10 14:45:23.595,150,219,219,219,219,205,205,205,205,200,200,200,200
1212117,2025-07-10 14:45:23.595,151,219,219,219,219,205,205,205,171,200,200,200,200
1212117,2025-07-10 14:45:23.595,152,159,159,159,159,171,171,171,171,200,200,178,178
1212117,2025-07-10 14:45:23.595,153,159,159,159,159,171,171,171,205,178,178,178,178
1212117,2025-07-10 14:45:23.595,154,219,219,219,219,205,205,205,205,178,178,178,178
1212117,2025-07-10 14:45:23.595,155,219,219,219,219,205,205,205,171,198,198,198,198
1212117,2025-07-10 14:45:23.595,156,159,159,159,159,171,171,171,171,198,198,198,198
1212117,2025-07-10 14:45:23.595,157,159,159,159,159,171,171,171,206,198,198,193,193
1212117,2025-07-10 14:45:23.595,158,219,219,219,219,206,206,206,206,193,193,193,193
1212117,2025-07-10 14:45:23.595,159,219,219,219,219,206,206,206,170,193,193,193,193
1212117,2025-07-10 14:45:23.595,160,159,159,159,159,170,170,170,170,180,180,180,180
1212117,2025-07-10 14:45:23.595,161,159,159,159,159,170,170,170,206,180,180,180,180
1212117,2025-07-10 14:45:23.595,162,220,220,220,220,206,206,206,206,180,180,201,201
1212117,2025-07-10 14:45:23.595,163,220,220,220,220,206,206,206,170,201,201,201,201
1212117,2025-07-10 14:45:23.595,164,159,159,159,159,170,170,170,170,201,201,201,201
1212117,2025-07-10 14:45:23.595,165,159,159,159,159,170,170,170,206,180,180,180,180
1212117,2025-07-10 14:45:23.595,166,220,220,220,220,206,206,206,206,180,180,180,180
1212117,2025-07-10 14:45:23.595,167,220,220,220,220,206,206,206,170,180,180,191,191
1212117,2025-07-10 14:45:23.595,168,159,159,159,159,170,170,170,170,191,191,191,191
1212117,2025-07-10 14:45:23.595,169,159,159,159,159,170,170,170,206,191,191,191,191
1212117,2025-07-10 14:45:23.595,170,220,220,220,220,206,206,206,206,203,203,203,203
1212117,2025-07-10 14:45:23.595,171,220,220,220,220,206,206,206,170,203,203,203,203
1212117,2025-07-10 14:45:23.595,172,159,159,159,159,170,170,170,170,203,203,179,179
1212117,2025-07-10 14:45:23.595,173,159,159,159,159,170,170,170,207,179,179,179,179
1212117,2025-07-10 14:45:23.595,174,220,220,220,220,207,207,207,207,179,179,179,179
1212117,2025-07-10 14:45:23.595,175,220,220,220,220,207,207,207,169,197,197,197,197
1212117,2025-07-10 14:45:23.595,176,159,159,159,159,169,169,169,169,197,197,197,197
1212117,2025-07-10 14:45:23.595,177,159,159,159,159,169,169,169,207,197,197,195,195
1212117,2025-07-10 14:45:23.595,178,220,220,220,220,207,207,207,207,195,195,195,195
1212117,2025-07-10 14:45:23.595,179,220,220,220,220,207,207,207,169,195,195,195,195
1212117,2025-07-10 14:45:23.595,180,159,159,159,159,169,169,169,169,178,178,178,178
1212117,2025-07-10 14:45:23.595,181,159,159,159,159,169,169,169,207,178,178,178,178
1212117,2025-07-10 14:45:23.595,182,219,219,219,219,207,207,207,207,178,178,201,201
1212117,2025-07-10 14:45:23.595,183,219,219,219,219,207,207,207,169,201,201,201,201
1212117,2025-07-10 14:45:23.595,184,161,161,161,161,169,169,169,169,201,201,201,201
1212117,2025-07-10 14:45:23.595,185,161,161,161,161,169,169,169,208,182,182,182,182
1212117,2025-07-10 14:45:23.595,186,219,219,219,219,208,208,208,208,182,182,182,182
1212117,2025-07-10 14:45:23.595,187,219,219,219,219,208,208,208,168,182,182,187,187
1212117,2025-07-10 14:45:23.595,188,162,162,162,162,168,168,168,168,187,187,187,187
1212117,2025-07-10 14:45:23.595,189,162,162,162,162,168,168,168,208,187,187,187,187
1212117,2025-07-10 14:45:23.595,190,217,217,217,217,208,208,208,208,205,205,205,205
1212117,2025-07-10 14:45:23.595,191,217,217,217,217,208,208,208,168,205,205,205,205
1212117,2025-07-10 14:45:23.595,192,162,162,162,162,168,168,168,168,205,205,179,179
1212117,2025-07-10 14:45:23.595,193,162,162,162,162,168,168,168,208,179,179,179,179
1212117,2025-07-10 14:45:23.595,194,217,217,217,217,208,208,208,208,179,179,179,179
1212117,2025-07-10 14:45:23.595,195,217,217,217,217,208,208,208,167,196,196,196,196
1212117,2025-07-10 14:45:23.595,196,163,163,163,163,167,167,167,167,196,196,196,196
1212117,2025-07-10 14:45:23.595,197,163,163,163,163,167,167,167,208,196,196,198,198
1212117,2025-07-10 14:45:23.595,198,217,217,217,217,208,208,208,208,198,198,198,198
1212117,2025-07-10 14:45:23.595,199,217,217,217,217,208,208,208,168,198,198,198,198
1213148,2025-07-10 14:45:24.590,0,163,163,163,163,168,168,168,168,177,177,177,177
1213148,2025-07-10 14:45:24.590,1,163,163,163,163,168,168,168,178,177,177,177,177
1213148,2025-07-10 14:45:24.590,2,181,181,181,181,178,178,178,178,177,177,188,188
1213148,2025-07-10 14:45:24.590,3,181,181,181,181,178,178,178,203,188,188,188,188
1213148,2025-07-10 14:45:24.590,4,199,199,199,199,203,203,203,203,188,188,188,188
1213148,2025-07-10 14:45:24.590,5,199,199,199,199,203,203,203,178,185,185,185,185
1213148,2025-07-10 14:45:24.590,6,181,181,181,181,178,178,178,178,185,185,185,185
1213148,2025-07-10 14:45:24.590,7,181,181,181,181,178,178,178,203,185,185,203,203
1213148,2025-07-10 14:45:24.590,8,198,198,198,198,203,203,203,203,203,203,203,203
1213148,2025-07-10 14:45:24.590,9,198,198,198,198,203,203,203,178,203,203,203,203
1213148,2025-07-10 14:45:24.590,10,181,181,181,181,178,178,178,178,179,179,179,179
1213148,2025-07-10 14:45:24.590,11,181,181,181,181,178,178,178,202,179,179,179,179
1213148,2025-07-10 14:45:24.590,12,198,198,198,198,202,202,202,202,179,179,193,193
1213148,2025-07-10 14:45:24.590,13,198,198,198,198,202,202,202,178,193,193,193,193
1213148,2025-07-10 14:45:24.590,14,183,183,183,183,178,178,178,178,193,193,193,193
1213148,2025-07-10 14:45:24.590,15,183,183,183,183,178,178,178,201,200,200,200,200
1213148,2025-07-10 14:45:24.590,16,196,196,196,196,201,201,201,201,200,200,200,200
1213148,2025-07-10 14:45:24.590,17,196,196,196,196,201,201,201,179,200,200,178,178
1213148,2025-07-10 14:45:24.590,18,183,183,183,183,179,179,179,179,178,178,178,178
1213148,2025-07-10 14:45:24.590,19,183,183,183,183,179,179,179,200,178,178,178,178
1213148,2025-07-10 14:45:24.590,20,196,196,196,196,200,200,200,200,198,198,198,198
1213148,2025-07-10 14:45:24.590,21,196,196,196,196,200,200,200,179,198,198,198,198
1213148,2025-07-10 14:45:24.590,22,184,184,184,184,179,179,179,179,198,198,192,192
1213148,2025-07-10 14:45:24.590,23,184,184,184,184,179,179,179,199,192,192,192,192
1213148,2025-07-10 14:45:24.590,24,195,195,195,195,199,199,199,199,192,192,192,192
1213148,2025-07-10 14:45:24.590,25,195,195,195,195,199,199,199,180,181,181,181,181
1213148,2025-07-10 14:45:24.590,26,184,184,184,184,180,180,180,180,181,181,181,181
1213148,2025-07-10 14:45:24.590,27,184,184,184,184,180,180,180,199,181,181,201,201
1213148,2025-07-10 14:45:24.590,28,194,194,194,194,199,199,199,199,201,201,201,201
1213148,2025-07-10 14:45:24.590,29,194,194,194,194,199,199,199,180,201,201,201,201
1213148,2025-07-10 14:45:24.590,30,185,185,185,185,180,180,180,180,180,180,180,180
1213148,2025-07-10 14:45:24.590,31,185,185,185,185,180,180,180,199,180,180,180,180
1213148,2025-07-10 14:45:24.590,32,193,193,193,193,199,199,199,199,180,180,191,191
1213148,2025-07-10 14:45:24.590,33,193,193,193,193,199,199,199,180,191,191,191,191
1213148,2025-07-10 14:45:24.590,34,185,185,185,185,180,180,180,180,191,191,191,191
1213148,2025-07-10 14:45:24.590,35,185,185,185,185,180,180,180,198,202,202,202,202
1213148,2025-07-10 14:45:24.590,36,192,192,192,192,198,198,198,198,202,202,202,202
1213148,2025-07-10 14:45:24.590,37,192,192,192,192,198,198,198,181,202,202,178,178
1213148,2025-07-10 14:45:24.590,38,187,187,187,187,181,181,181,181,178,178,178,178
1213148,2025-07-10 14:45:24.590,39,187,187,187,187,181,181,181,197,178,178,178,178
1213148,2025-07-10 14:45:24.590,40,191,191,191,191,197,197,197,197,197,197,197,197
1213148,2025-07-10 14:45:24.590,41,191,191,191,191,197,197,197,181,197,197,197,197
1213148,2025-07-10 14:45:24.590,42,188,188,188,188,181,181,181,181,197,197,195,195
1213148,2025-07-10 14:45:24.590,43,188,188,188,188,181,181,181,196,195,195,195,195
1213148,2025-07-10 14:45:24.590,44,190,190,190,190,196,196,196,196,195,195,195,195
1213148,2025-07-10 14:45:24.590,45,190,190,190,190,196,196,196,182,178,178,178,178
1213148,2025-07-10 14:45:24.590,46,190,190,190,190,182,182,182,182,178,178,178,178
1213148,2025-07-10 14:45:24.590,47,190,190,190,190,182,182,182,196,178,178,200,200
1213148,2025-07-10 14:45:24.590,48,188,188,188,188,196,196,196,196,200,200,200,200
1213148,2025-07-10 14:45:24.590,49,188,188,188,188,196,196,196,183,200,200,200,200
1213148,2025-07-10 14:45:24.590,50,191,191,191,191,183,183,183,183,182,182,182,182
1213148,2025-07-10 14:45:24.590,51,191,191,191,191,183,183,183,195,182,182,182,182
1213148,2025-07-10 14:45:24.590,52,187,187,187,187,195,195,195,195,182,182,188,188
1213148,2025-07-10 14:45:24.590,53,187,187,187,187,195,195,195,183,188,188,188,188
1213148,2025-07-10 14:45:24.590,54,192,192,192,192,183,183,183,183,188,188,188,188
1213148,2025-07-10 14:45:24.590,55,192,192,192,192,183,183,183,194,205,205,205,205
1213148,2025-07-10 14:45:24.590,56,186,186,186,186,194,194,194,194,205,205,205,205
1213148,2025-07-10 14:45:24.590,57,186,186,186,186,194,194,194,183,205,205,178,178
1213148,2025-07-10 14:45:24.590,58,192,192,192,192,183,183,183,183,178,178,178,178
1213148,2025-07-10 14:45:24.590,59,192,192,192,192,183,183,183,194,178,178,178,178
1213148,2025-07-10 14:45:24.590,60,185,185,185,185,194,194,194,194,196,196,196,196
1213148,2025-07-10 14:45:24.590,61,185,185,185,185,194,194,194,184,196,196,196,196
1213148,2025-07-10 14:45:24.590,62,194,194,194,194,184,184,184,184,196,196,198,198
1213148,2025-07-10 14:45:24.590,63,194,194,194,194,184,184,184,193,198,198,198,198
1213148,2025-07-10 14:45:24.590,64,184,184,184,184,193,193,193,193,198,198,198,198
1213148,2025-07-10 14:45:24.590,65,184,184,184,184,193,193,193,185,177,177,177,177
1213148,2025-07-10 14:45:24.590,66,195,195,195,195,185,185,185,185,177,177,177,177
1213148,2025-07-10 14:45:24.590,67,195,195,195,195,185,185,185,192,177,177,199,199
1213148,2025-07-10 14:45:24.590,68,182,182,182,182,192,192,192,192,199,199,199,199
1213148,2025-07-10 14:45:24.590,69,182,182,182,182,192,192,192,185,199,199,199,199
1213148,2025-07-10 14:45:24.590,70,197,197,197,197,185,185,185,185,184,184,184,184
1213148,2025-07-10 14:45:24.590,71,197,197,197,197,185,185,185,191,184,184,184,184
1213148,2025-07-10 14:45:24.590,72,182,182,182,182,191,191,191,191,184,184,185,185
1213148,2025-07-10 14:45:24.590,73,182,182,182,182,191,191,191,187,185,185,185,185
1213148,2025-07-10 14:45:24.590,74,199,199,199,199,187,187,187,187,185,185,185,185
1213148,2025-07-10 14:45:24.590,75,199,199,199,199,187,187,187,190,205,205,205,205
1213148,2025-07-10 14:45:24.590,76,180,180,180,180,190,190,190,190,205,205,205,205
1213148,2025-07-10 14:45:24.590,77,180,180,180,180,190,190,190,188,205,205,179,179
1213148,2025-07-10 14:45:24.590,78,201,201,201,201,188,188,188,188,179,179,179,179
1213148,2025-07-10 14:45:24.590,79,201,201,201,201,188,188,188,189,179,179,179,179
1213148,2025-07-10 14:45:24.590,80,178,178,178,178,189,189,189,189,195,195,195,195
1213148,2025-07-10 14:45:24.590,81,178,178,178,178,189,189,189,189,195,195,195,195
1213148,2025-07-10 14:45:24.590,82,202,202,202,202,189,189,189,189,195,195,200,200
1213148,2025-07-10 14:45:24.590,83,202,202,202,202,189,189,189,189,200,200,200,200
1213148,2025-07-10 14:45:24.590,84,177,177,177,177,189,189,189,189,200,200,200,200
1213148,2025-07-10 14:45:24.590,85,177,177,177,177,189,189,189,189,177,177,177,177
1213148,2025-07-10 14:45:24.590,86,203,203,203,203,189,189,189,189,177,177,177,177
1213148,2025-07-10 14:45:24.590,87,203,203,203,203,189,189,189,188,177,177,197,197
1213148,2025-07-10 14:45:24.590,88,177,177,177,177,188,188,188,188,197,197,197,197
1213148,2025-07-10 14:45:24.590,89,177,177,177,177,188,188,188,190,197,197,197,197
1213148,2025-07-10 14:45:24.590,90,204,204,204,204,190,190,190,190,188,188,188,188
1213148,2025-07-10 14:45:24.590,91,204,204,204,204,190,190,190,187,188,188,188,188
1213148,2025-07-10 14:45:24.590,92,175,175,175,175,187,187,187,187,188,188,182,182
1213148,2025-07-10 14:45:24.590,93,175,175,175,175,187,187,187,192,182,182,182,182
1213148,2025-07-10 14:45:24.590,94,206,206,206,206,192,192,192,192,182,182,182,182
1213148,2025-07-10 14:45:24.590,95,206,206,206,206,192,192,192,186,204,204,204,204
1213148,2025-07-10 14:45:24.590,96,173,173,173,173,186,186,186,186,204,204,204,204
1213148,2025-07-10 14:45:24.590,97,173,173,173,173,186,186,186,193,204,204,181,181
1213148,2025-07-10 14:45:24.590,98,208,208,208,208,193,193,193,193,181,181,181,181
1213148,2025-07-10 14:45:24.590,99,208,208,208,208,193,193,193,185,181,181,181,181
1213148,2025-07-10 14:45:24.590,100,171,171,171,171,185,185,185,185,193,193,193,193
1213148,2025-07-10 14:45:24.590,101,171,171,171,171,185,185,185,195,193,193,193,193
1213148,2025-07-10 14:45:24.590,102,210,210,210,210,195,195,195,195,193,193,203,203
1213148,2025-07-10 14:45:24.590,103,210,210,210,210,195,195,195,183,203,203,203,203
1213148,2025-07-10 14:45:24.590,104,170,170,170,170,183,183,183,183,203,203,203,203
1213148,2025-07-10 14:45:24.590,105,170,170,170,170,183,183,183,196,177,177,177,177
1213148,2025-07-10 14:45:24.590,106,211,211,211,211,196,196,196,196,177,177,177,177
1213148,2025-07-10 14:45:24.590,107,211,211,211,211,196,196,196,183,177,177,195,195
1213148,2025-07-10 14:45:24.590,108,170,170,170,170,183,183,183,183,195,195,195,195
1213148,2025-07-10 14:45:24.590,109,170,170,170,170,183,183,183,197,195,195,195,195
1213148,2025-07-10 14:45:24.590,110,211,211,211,211,197,197,197,197,192,192,192,192
1213148,2025-07-10 14:45:24.590,111,211,211,211,211,197,197,197,182,192,192,192,192
1213148,2025-07-10 14:45:24.590,112,169,169,169,169,182,182,182,182,192,192,180,180
1213148,2025-07-10 14:45:24.590,113,169,169,169,169,182,182,182,197,180,180,180,180
1213148,2025-07-10 14:45:24.590,114,212,212,212,212,197,197,197,197,180,180,180,180
1213148,2025-07-10 14:45:24.590,115,212,212,212,212,197,197,197,181,202,202,202,202
1213148,2025-07-10 14:45:24.590,116,168,168,168,168,181,181,181,181,202,202,202,202
1213148,2025-07-10 14:45:24.590,117,168,168,168,168,181,181,181,199,202,202,183,183
1213148,2025-07-10 14:45:24.590,118,213,213,213,213,199,199,199,199,183,183,183,183
1213148,2025-07-10 14:45:24.590,119,213,213,213,213,199,199,199,180,183,183,183,183
1213148,2025-07-10 14:45:24.590,120,166,166,166,166,180,180,180,180,191,191,191,191
1213148,2025-07-10 14:45:24.590,121,166,166,166,166,180,180,180,200,191,191,191,191
1213148,2025-07-10 14:45:24.590,122,214,214,214,214,200,200,200,200,191,191,203,203
1213148,2025-07-10 14:45:24.590,123,214,214,214,214,200,200,200,179,203,203,203,203
1213148,2025-07-10 14:45:24.590,124,165,165,165,165,179,179,179,179,203,203,203,203
1213148,2025-07-10 14:45:24.590,125,165,165,165,165,179,179,179,201,178,178,178,178
1213148,2025-07-10 14:45:24.590,126,214,214,214,214,201,201,201,201,178,178,178,178
1213148,2025-07-10 14:45:24.590,127,214,214,214,214,201,201,201,178,178,178,195,195
1213148,2025-07-10 14:45:24.590,128,164,164,164,164,178,178,178,178,195,195,195,195
1213148,2025-07-10 14:45:24.590,129,164,164,164,164,178,178,178,201,195,195,195,195
1213148,2025-07-10 14:45:24.590,130,215,215,215,215,201,201,201,201,196,196,196,196
1213148,2025-07-10 14:45:24.590,131,215,215,215,215,201,201,201,178,196,196,196,196
1213148,2025-07-10 14:45:24.590,132,164,164,164,164,178,178,178,178,196,196,179,179
1213148,2025-07-10 14:45:24.590,133,164,164,164,164,178,178,178,201,179,179,179,179
1213148,2025-07-10 14:45:24.590,134,215,215,215,215,201,201,201,201,179,179,179,179
1213148,2025-07-10 14:45:24.590,135,215,215,215,215,201,201,201,177,201,201,201,201
1213148,2025-07-10 14:45:24.590,136,163,163,163,163,177,177,177,177,201,201,201,201
1213148,2025-07-10 14:45:24.590,137,163,163,163,163,177,177,177,201,201,201,186,186
1213148,2025-07-10 14:45:24.590,138,216,216,216,216,201,201,201,201,186,186,186,186
1213148,2025-07-10 14:45:24.590,139,216,216,216,216,201,201,201,177,186,186,186,186
1213148,2025-07-10 14:45:24.590,140,163,163,163,163,177,177,177,177,188,188,188,188
1213148,2025-07-10 14:45:24.590,141,163,163,163,163,177,177,177,202,188,188,188,188
1213148,2025-07-10 14:45:24.590,142,216,216,216,216,202,202,202,202,188,188,203,203
1213148,2025-07-10 14:45:24.590,143,216,216,216,216,202,202,202,175,203,203,203,203
1213148,2025-07-10 14:45:24.590,144,162,162,162,162,175,175,175,175,203,203,203,203
1213148,2025-07-10 14:45:24.590,145,162,162,162,162,175,175,175,203,178,178,178,178
1213148,2025-07-10 14:45:24.590,146,217,217,217,217,203,203,203,203,178,178,178,178
1213148,2025-07-10 14:45:24.590,147,217,217,217,217,203,203,203,175,178,178,193,193
1213148,2025-07-10 14:45:24.590,148,161,161,161,161,175,175,175,175,199,199,199,199
1213148,2025-07-10 14:45:24.590,149,161,161,161,161,175,175,175,175,199,199,199,199
1213148,2025-07-10 14:45:24.590,150,167,167,167,167,176,176,176,176,199,199,179,179
1213148,2025-07-10 14:45:24.590,151,167,167,167,167,176,176,176,205,179,179,179,179
1213148,2025-07-10 14:45:24.590,152,219,219,219,219,205,205,205,205,179,179,179,179
1213148,2025-07-10 14:45:24.590,153,219,219,219,219,205,205,205,171,196,196,196,196
1213148,2025-07-10 14:45:24.590,154,160,160,160,160,171,171,171,171,196,196,196,196
1213148,2025-07-10 14:45:24.590,155,160,160,160,160,171,171,171,205,196,196,192,192
1213148,2025-07-10 14:45:24.590,156,219,219,219,219,205,205,205,205,192,192,192,192
1213148,2025-07-10 14:45:24.590,157,219,219,219,219,205,205,205,171,192,192,192,192
1213148,2025-07-10 14:45:24.590,158,159,159,159,159,171,171,171,171,181,181,181,181
1213148,2025-07-10 14:45:24.590,159,159,159,159,159,171,171,171,205,181,181,181,181
1213148,2025-07-10 14:45:24.590,160,218,218,218,218,205,205,205,205,181,181,201,201
1213148,2025-07-10 14:45:24.590,161,218,218,218,218,205,205,205,171,201,201,201,201
1213148,2025-07-10 14:45:24.590,162,159,159,159,159,171,171,171,171,201,201,201,201
1213148,2025-07-10 14:45:24.590,163,159,159,159,159,171,171,171,206,180,180,180,180
1213148,2025-07-10 14:45:24.590,164,219,219,219,219,206,206,206,206,180,180,180,180
1213148,2025-07-10 14:45:24.590,165,219,219,219,219,206,206,206,170,180,180,191,191
1213148,2025-07-10 14:45:24.590,166,159,159,159,159,170,170,170,170,191,191,191,191
1213148,2025-07-10 14:45:24.590,167,159,159,159,159,170,170,170,207,191,191,191,191
1213148,2025-07-10 14:45:24.590,168,220,220,220,220,207,207,207,207,202,202,202,202
1213148,2025-07-10 14:45:24.590,169,220,220,220,220,207,207,207,170,202,202,202,202
1213148,2025-07-10 14:45:24.590,170,159,159,159,159,170,170,170,170,202,202,178,178
1213148,2025-07-10 14:45:24.590,171,159,159,159,159,170,170,170,206,178,178,178,178
1213148,2025-07-10 14:45:24.590,172,219,219,219,219,206,206,206,206,178,178,178,178
1213148,2025-07-10 14:45:24.590,173,219,219,219,219,206,206,206,169,197,197,197,197
1213148,2025-07-10 14:45:24.590,174,159,159,159,159,169,169,169,169,197,197,197,197
1213148,2025-07-10 14:45:24.590,175,159,159,159,159,169,169,169,206,197,197,195,195
1213148,2025-07-10 14:45:24.590,176,220,220,220,220,206,206,206,206,195,195,195,195
1213148,2025-07-10 14:45:24.590,177,220,220,220,220,206,206,206,169,195,195,195,195
1213148,2025-07-10 14:45:24.590,178,159,159,159,159,169,169,169,169,179,179,179,179
1213148,2025-07-10 14:45:24.590,179,159,159,159,159,169,169,169,207,179,179,179,179
1213148,2025-07-10 14:45:24.590,180,219,219,219,219,207,207,207,207,179,179,201,201
1213148,2025-07-10 14:45:24.590,181,219,219,219,219,207,207,207,169,201,201,201,201
1213148,2025-07-10 14:45:24.590,182,160,160,160,160,169,169,169,169,201,201,201,201
1213148,2025-07-10 14:45:24.590,183,160,160,160,160,169,169,169,207,181,181,181,181
1213148,2025-07-10 14:45:24.590,184,219,219,219,219,207,207,207,207,181,181,181,181
1213148,2025-07-10 14:45:24.590,185,219,219,219,219,207,207,207,169,181,181,189,189
1213148,2025-07-10 14:45:24.590,186,161,161,161,161,169,169,169,169,189,189,189,189
1213148,2025-07-10 14:45:24.590,187,161,161,161,161,169,169,169,208,189,189,189,189
1213148,2025-07-10 14:45:24.590,188,218,218,218,218,208,208,208,208,204,204,204,204
1213148,2025-07-10 14:45:24.590,189,218,218,218,218,208,208,208,168,204,204,204,204
1213148,2025-07-10 14:45:24.590,190,162,162,162,162,168,168,168,168,204,204,179,179
1213148,2025-07-10 14:45:24.590,191,162,162,162,162,168,168,168,208,179,179,179,179
1213148,2025-07-10 14:45:24.590,192,217,217,217,217,208,208,208,208,179,179,179,179
1213148,2025-07-10 14:45:24.590,193,217,217,217,217,208,208,208,168,196,196,196,196
1213148,2025-07-10 14:45:24.590,194,163,163,163,163,168,168,168,168,196,196,196,196
1213148,2025-07-10 14:45:24.590,195,163,163,163,163,168,168,168,208,196,196,198,198
1213148,2025-07-10 14:45:24.590,196,217,217,217,217,208,208,208,208,198,198,198,198
1213148,2025-07-10 14:45:24.590,197,217,217,217,217,208,208,208,168,198,198,198,198
1213148,2025-07-10 14:45:24.590,198,163,163,163,163,168,168,168,168,177,177,177,177
1213148,2025-07-10 14:45:24.590,199,163,163,163,163,168,168,168,209,177,177,177,177
1214169,2025-07-10 14:45:25.616,0,216,216,216,216,209,209,209,209,199,199,199,199
1214169,2025-07-10 14:45:25.616,1,216,216,216,216,209,209,209,198,199,199,199,199
1214169,2025-07-10 14:45:25.616,2,196,196,196,196,198,198,198,198,199,199,190,190
1214169,2025-07-10 14:45:25.616,3,196,196,196,196,198,198,198,181,190,190,190,190
1214169,2025-07-10 14:45:25.616,4,185,185,185,185,181,181,181,181,190,190,190,190
1214169,2025-07-10 14:45:25.616,5,185,185,185,185,181,181,181,198,202,202,202,202
1214169,2025-07-10 14:45:25.616,6,193,193,193,193,198,198,198,198,202,202,202,202
1214169,2025-07-10 14:45:25.616,7,193,193,193,193,198,198,198,181,202,202,178,178
1214169,2025-07-10 14:45:25.616,8,185,185,185,185,181,181,181,181,178,178,178,178
1214169,2025-07-10 14:45:25.616,9,185,185,185,185,181,181,181,198,178,178,178,178
1214169,2025-07-10 14:45:25.616,10,193,193,193,193,198,198,198,198,197,197,197,197
1214169,2025-07-10 14:45:25.616,11,193,193,193,193,198,198,198,181,197,197,197,197
1214169,2025-07-10 14:45:25.616,12,187,187,187,187,181,181,181,181,197,197,195,195
1214169,2025-07-10 14:45:25.616,13,187,187,187,187,181,181,181,197,195,195,195,195
1214169,2025-07-10 14:45:25.616,14,191,191,191,191,197,197,197,197,195,195,195,195
1214169,2025-07-10 14:45:25.616,15,191,191,191,191,197,197,197,182,179,179,179,179
1214169,2025-07-10 14:45:25.616,16,187,187,187,187,182,182,182,182,179,179,179,179
1214169,2025-07-10 14:45:25.616,17,187,187,187,187,182,182,182,197,179,179,201,201
1214169,2025-07-10 14:45:25.616,18,191,191,191,191,197,197,197,197,201,201,201,201
1214169,2025-07-10 14:45:25.616,19,191,191,191,191,197,197,197,181,201,201,201,201
1214169,2025-07-10 14:45:25.616,20,188,188,188,188,181,181,181,181,181,181,181,181
1214169,2025-07-10 14:45:25.616,21,188,188,188,188,181,181,181,196,181,181,181,181
1214169,2025-07-10 14:45:25.616,22,189,189,189,189,196,196,196,196,181,181,189,189
1214169,2025-07-10 14:45:25.616,23,189,189,189,189,196,196,196,182,189,189,189,189
1214169,2025-07-10 14:45:25.616,24,190,190,190,190,182,182,182,182,189,189,189,189
1214169,2025-07-10 14:45:25.616,25,190,190,190,190,182,182,182,195,204,204,204,204
1214169,2025-07-10 14:45:25.616,26,187,187,187,187,195,195,195,195,204,204,204,204
1214169,2025-07-10 14:45:25.616,27,187,187,187,187,195,195,195,183,204,204,179,179
1214169,2025-07-10 14:45:25.616,28,192,192,192,192,183,183,183,183,179,179,179,179
1214169,2025-07-10 14:45:25.616,29,192,192,192,192,183,183,183,194,179,179,179,179
1214169,2025-07-10 14:45:25.616,30,186,186,186,186,194,194,194,194,196,196,196,196
1214169,2025-07-10 14:45:25.616,31,186,186,186,186,194,194,194,184,196,196,196,196
1214169,2025-07-10 14:45:25.616,32,194,194,194,194,184,184,184,184,196,196,197,197
1214169,2025-07-10 14:45:25.616,33,194,194,194,194,184,184,184,194,197,197,197,197
1214169,2025-07-10 14:45:25.616,34,185,185,185,185,194,194,194,194,197,197,197,197
1214169,2025-07-10 14:45:25.616,35,185,185,185,185,194,194,194,184,177,177,177,177
1214169,2025-07-10 14:45:25.616,36,194,194,194,194,184,184,184,184,177,177,177,177
1214169,2025-07-10 14:45:25.616,37,194,194,194,194,184,184,184,193,177,177,199,199
1214169,2025-07-10 14:45:25.616,38,184,184,184,184,193,193,193,193,199,199,199,199
1214169,2025-07-10 14:45:25.616,39,184,184,184,184,193,193,193,184,199,199,199,199
1214169,2025-07-10 14:45:25.616,40,195,195,195,195,184,184,184,184,184,184,184,184
1214169,2025-07-10 14:45:25.616,41,195,195,195,195,184,184,184,192,184,184,184,184
1214169,2025-07-10 14:45:25.616,42,182,182,182,182,192,192,192,192,184,184,186,186
1214169,2025-07-10 14:45:25.616,43,182,182,182,182,192,192,192,185,186,186,186,186
1214169,2025-07-10 14:45:25.616,44,197,197,197,197,185,185,185,185,186,186,186,186
1214169,2025-07-10 14:45:25.616,45,197,197,197,197,185,185,185,191,205,205,205,205
1214169,2025-07-10 14:45:25.616,46,182,182,182,182,191,191,191,191,205,205,205,205
1214169,2025-07-10 14:45:25.616,47,182,182,182,182,191,191,191,187,205,205,179,179
1214169,2025-07-10 14:45:25.616,48,198,198,198,198,187,187,187,187,179,179,179,179
1214169,2025-07-10 14:45:25.616,49,198,198,198,198,187,187,187,190,179,179,179,179
1214169,2025-07-10 14:45:25.616,50,180,180,180,180,190,190,190,190,195,195,195,195
1214169,2025-07-10 14:45:25.616,51,180,180,180,180,190,190,190,188,195,195,195,195
1214169,2025-07-10 14:45:25.616,52,200,200,200,200,188,188,188,188,195,195,200,200
1214169,2025-07-10 14:45:25.616,53,200,200,200,200,188,188,188,189,200,200,200,200
1214169,2025-07-10 14:45:25.616,54,178,178,178,178,189,189,189,189,200,200,200,200
1214169,2025-07-10 14:45:25.616,55,178,178,178,178,189,189,189,189,177,177,177,177
1214169,2025-07-10 14:45:25.616,56,203,203,203,203,189,189,189,189,177,177,177,177
1214169,2025-07-10 14:45:25.616,57,203,203,203,203,189,189,189,188,177,177,197,197
1214169,2025-07-10 14:45:25.616,58,177,177,177,177,188,188,188,188,197,197,197,197
1214169,2025-07-10 14:45:25.616,59,177,177,177,177,188,188,188,191,197,197,197,197
1214169,2025-07-10 14:45:25.616,60,204,204,204,204,191,191,191,191,188,188,188,188
1214169,2025-07-10 14:45:25.616,61,204,204,204,204,191,191,191,188,188,188,188,188
1214169,2025-07-10 14:45:25.616,62,175,175,175,175,188,188,188,188,188,188,183,183
1214169,2025-07-10 14:45:25.616,63,175,175,175,175,188,188,188,191,183,183,183,183
1214169,2025-07-10 14:45:25.616,64,206,206,206,206,191,191,191,191,183,183,183,183
1214169,2025-07-10 14:45:25.616,65,206,206,206,206,191,191,191,186,204,204,204,204
1214169,2025-07-10 14:45:25.616,66,174,174,174,174,186,186,186,186,204,204,204,204
1214169,2025-07-10 14:45:25.616,67,174,174,174,174,186,186,186,192,204,204,180,180
1214169,2025-07-10 14:45:25.616,68,207,207,207,207,192,192,192,192,180,180,180,180
1214169,2025-07-10 14:45:25.616,69,207,207,207,207,192,192,192,186,180,180,180,180
1214169,2025-07-10 14:45:25.616,70,172,172,172,172,186,186,186,186,193,193,193,193
1214169,2025-07-10 14:45:25.616,71,172,172,172,172,186,186,186,194,193,193,193,193
1214169,2025-07-10 14:45:25.616,72,208,208,208,208,194,194,194,194,193,193,202,202
1214169,2025-07-10 14:45:25.616,73,208,208,208,208,194,194,194,184,202,202,202,202
1214169,2025-07-10 14:45:25.616,74,171,171,171,171,184,184,184,184,202,202,202,202
1214169,2025-07-10 14:45:25.616,75,171,171,171,171,184,184,184,195,177,177,177,177
1214169,2025-07-10 14:45:25.616,76,210,210,210,210,195,195,195,195,177,177,177,177
1214169,2025-07-10 14:45:25.616,77,210,210,210,210,195,195,195,183,177,177,196,196
1214169,2025-07-10 14:45:25.616,78,170,170,170,170,183,183,183,183,196,196,196,196
1214169,2025-07-10 14:45:25.616,79,170,170,170,170,183,183,183,196,196,196,196,196
1214169,2025-07-10 14:45:25.616,80,211,211,211,211,196,196,196,196,192,192,192,192
1214169,2025-07-10 14:45:25.616,81,211,211,211,211,196,196,196,182,192,192,192,192
1214169,2025-07-10 14:45:25.616,82,169,169,169,169,182,182,182,182,192,192,180,180
1214169,2025-07-10 14:45:25.616,83,169,169,169,169,182,182,182,197,180,180,180,180
1214169,2025-07-10 14:45:25.616,84,211,211,211,211,197,197,197,197,180,180,180,180
1214169,2025-07-10 14:45:25.616,85,211,211,211,211,197,197,197,182,203,203,203,203
1214169,2025-07-10 14:45:25.616,86,169,169,169,169,182,182,182,182,203,203,203,203
1214169,2025-07-10 14:45:25.616,87,169,169,169,169,182,182,182,197,203,203,183,183
1214169,2025-07-10 14:45:25.616,88,212,212,212,212,197,197,197,197,183,183,183,183
1214169,2025-07-10 14:45:25.616,89,212,212,212,212,197,197,197,181,183,183,183,183
1214169,2025-07-10 14:45:25.616,90,168,168,168,168,181,181,181,181,191,191,191,191
1214169,2025-07-10 14:45:25.616,91,168,168,168,168,181,181,181,198,191,191,191,191
1214169,2025-07-10 14:45:25.616,92,212,212,212,212,198,198,198,198,191,191,203,203
1214169,2025-07-10 14:45:25.616,93,212,212,212,212,198,198,198,181,203,203,203,203
1214169,2025-07-10 14:45:25.616,94,167,167,167,167,181,181,181,181,203,203,203,203
1214169,2025-07-10 14:45:25.616,95,167,167,167,167,181,181,181,199,177,177,177,177
1214169,2025-07-10 14:45:25.616,96,213,213,213,213,199,199,199,199,177,177,177,177
1214169,2025-07-10 14:45:25.616,97,213,213,213,213,199,199,199,180,177,177,195,195
1214169,2025-07-10 14:45:25.616,98,166,166,166,166,180,180,180,180,195,195,195,195
1214169,2025-07-10 14:45:25.616,99,166,166,166,166,180,180,180,200,195,195,195,195
1214169,2025-07-10 14:45:25.616,100,214,214,214,214,200,200,200,200,196,196,196,196
1214169,2025-07-10 14:45:25.616,101,214,214,214,214,200,200,200,179,196,196,196,196
1214169,2025-07-10 14:45:25.616,102,165,165,165,165,179,179,179,179,196,196,179,179
1214169,2025-07-10 14:45:25.616,103,165,165,165,165,179,179,179,201,179,179,179,179
1214169,2025-07-10 14:45:25.616,104,215,215,215,215,201,201,201,201,179,179,179,179
1214169,2025-07-10 14:45:25.616,105,215,215,215,215,201,201,201,178,201,201,201,201
1214169,2025-07-10 14:45:25.616,106,163,163,163,163,178,178,178,178,201,201,201,201
1214169,2025-07-10 14:45:25.616,107,163,163,163,163,178,178,178,201,201,201,186,186
1214169,2025-07-10 14:45:25.616,108,215,215,215,215,201,201,201,201,186,186,186,186
1214169,2025-07-10 14:45:25.616,109,215,215,215,215,201,201,201,177,186,186,186,186
1214169,2025-07-10 14:45:25.616,110,163,163,163,163,177,177,177,177,188,188,188,188
1214169,2025-07-10 14:45:25.616,111,163,163,163,163,177,177,177,202,188,188,188,188
1214169,2025-07-10 14:45:25.616,112,216,216,216,216,202,202,202,202,188,188,203,203
1214169,2025-07-10 14:45:25.616,113,216,216,216,216,202,202,202,176,203,203,203,203
1214169,2025-07-10 14:45:25.616,114,163,163,163,163,176,176,176,176,203,203,203,203
1214169,2025-07-10 14:45:25.616,115,163,163,163,163,176,176,176,202,178,178,178,178
1214169,2025-07-10 14:45:25.616,116,216,216,216,216,202,202,202,202,178,178,178,178
1214169,2025-07-10 14:45:25.616,117,216,216,216,216,202,202,202,176,178,178,194,194
1214169,2025-07-10 14:45:25.616,118,162,162,162,162,176,176,176,176,194,194,194,194
1214169,2025-07-10 14:45:25.616,119,162,162,162,162,176,176,176,202,194,194,194,194
1214169,2025-07-10 14:45:25.616,120,217,217,217,217,202,202,202,202,199,199,199,199
1214169,2025-07-10 14:45:25.616,121,217,217,217,217,202,202,202,175,199,199,199,199
1214169,2025-07-10 14:45:25.616,122,162,162,162,162,175,175,175,175,199,199,179,179
1214169,2025-07-10 14:45:25.616,123,162,162,162,162,175,175,175,203,179,179,179,179
1214169,2025-07-10 14:45:25.616,124,217,217,217,217,203,203,203,203,179,179,179,179
1214169,2025-07-10 14:45:25.616,125,217,217,217,217,203,203,203,174,199,199,199,199
1214169,2025-07-10 14:45:25.616,126,161,161,161,161,174,174,174,174,199,199,199,199
1214169,2025-07-10 14:45:25.616,127,161,161,161,161,174,174,174,204,199,199,190,190
1214169,2025-07-10 14:45:25.616,128,218,218,218,218,204,204,204,204,190,190,190,190
1214169,2025-07-10 14:45:25.616,129,218,218,218,218,204,204,204,173,190,190,190,190
1214169,2025-07-10 14:45:25.616,130,160,160,160,160,173,173,173,173,183,183,183,183
1214169,2025-07-10 14:45:25.616,131,160,160,160,160,173,173,173,204,183,183,183,183
1214169,2025-07-10 14:45:25.616,132,218,218,218,218,204,204,204,204,183,183,202,202
1214169,2025-07-10 14:45:25.616,133,218,218,218,218,204,204,204,172,202,202,202,202
1214169,2025-07-10 14:45:25.616,134,160,160,160,160,172,172,172,172,202,202,202,202
1214169,2025-07-10 14:45:25.616,135,160,160,160,160,172,172,172,205,179,179,179,179
1214169,2025-07-10 14:45:25.616,136,218,218,218,218,205,205,205,205,179,179,179,179
1214169,2025-07-10 14:45:25.616,137,218,218,218,218,205,205,205,172,179,179,192,192
1214169,2025-07-10 14:45:25.616,138,160,160,160,160,172,172,172,172,192,192,192,192
1214169,2025-07-10 14:45:25.616,139,160,160,160,160,172,172,172,205,192,192,192,192
1214169,2025-07-10 14:45:25.616,140,218,218,218,218,205,205,205,205,200,200,200,200
1214169,2025-07-10 14:45:25.616,141,218,218,218,218,205,205,205,172,200,200,200,200
1214169,2025-07-10 14:45:25.616,142,160,160,160,160,172,172,172,172,200,200,178,178
1214169,2025-07-10 14:45:25.616,143,160,160,160,160,172,172,172,205,178,178,178,178
1214169,2025-07-10 14:45:25.616,144,219,219,219,219,205,205,205,205,178,178,178,178
1214169,2025-07-10 14:45:25.616,145,219,219,219,219,205,205,205,171,197,197,197,197
1214169,2025-07-10 14:45:25.616,146,159,159,159,159,171,171,171,171,197,197,197,197
1214169,2025-07-10 14:45:25.616,147,159,159,159,159,171,171,171,206,197,197,193,193
1214169,2025-07-10 14:45:25.616,148,219,219,219,219,206,206,206,206,193,193,193,193
1214169,2025-07-10 14:45:25.616,149,219,219,219,219,206,206,206,171,193,193,193,193
1214169,2025-07-10 14:45:25.616,150,159,159,159,159,171,171,171,171,180,180,180,180
1214169,2025-07-10 14:45:25.616,151,159,159,159,159,171,171,171,206,180,180,180,180
1214169,2025-07-10 14:45:25.616,152,219,219,219,219,206,206,206,206,180,180,201,201
1214169,2025-07-10 14:45:25.616,153,219,219,219,219,206,206,206,170,201,201,201,201
1214169,2025-07-10 14:45:25.616,154,159,159,159,159,170,170,170,170,201,201,201,201
1214169,2025-07-10 14:45:25.616,155,159,159,159,159,170,170,170,206,180,180,180,180
1214169,2025-07-10 14:45:25.616,156,220,220,220,220,206,206,206,206,180,180,180,180
1214169,2025-07-10 14:45:25.616,157,220,220,220,220,206,206,206,169,180,180,190,190
1214169,2025-07-10 14:45:25.616,158,159,159,159,159,169,169,169,169,190,190,190,190
1214169,2025-07-10 14:45:25.616,159,159,159,159,159,169,169,169,207,190,190,190,190
1214169,2025-07-10 14:45:25.616,160,220,220,220,220,207,207,207,207,203,203,203,203
1214169,2025-07-10 14:45:25.616,161,220,220,220,220,207,207,207,169,203,203,203,203
1214169,2025-07-10 14:45:25.616,162,159,159,159,159,169,169,169,169,203,203,179,179
1214169,2025-07-10 14:45:25.616,163,159,159,159,159,169,169,169,207,179,179,179,179
1214169,2025-07-10 14:45:25.616,164,219,219,219,219,207,207,207,207,179,179,179,179
1214169,2025-07-10 14:45:25.616,165,219,219,219,219,207,207,207,169,196,196,196,196
1214169,2025-07-10 14:45:25.616,166,160,160,160,160,169,169,169,169,196,196,196,196
1214169,2025-07-10 14:45:25.616,167,160,160,160,160,169,169,169,207,196,196,196,196
1214169,2025-07-10 14:45:25.616,168,219,219,219,219,207,207,207,207,196,196,196,196
1214169,2025-07-10 14:45:25.616,169,219,219,219,219,207,207,207,169,196,196,196,196
1214169,2025-07-10 14:45:25.616,170,161,161,161,161,169,169,169,169,178,178,178,178
1214169,2025-07-10 14:45:25.616,171,161,161,161,161,169,169,169,208,178,178,178,178
1214169,2025-07-10 14:45:25.616,172,218,218,218,218,208,208,208,208,178,178,200,200
1214169,2025-07-10 14:45:25.616,173,218,218,218,218,208,208,208,168,200,200,200,200
1214169,2025-07-10 14:45:25.616,174,161,161,161,161,168,168,168,168,200,200,200,200
1214169,2025-07-10 14:45:25.616,175,161,161,161,161,168,168,168,208,183,183,183,183
1214169,2025-07-10 14:45:25.616,176,218,218,218,218,208,208,208,208,183,183,183,183
1214169,2025-07-10 14:45:25.616,177,218,218,218,218,208,208,208,168,183,183,187,187
1214169,2025-07-10 14:45:25.616,178,163,163,163,163,168,168,168,168,187,187,187,187
1214169,2025-07-10 14:45:25.616,179,163,163,163,163,168,168,168,208,187,187,187,187
1214169,2025-07-10 14:45:25.616,180,217,217,217,217,208,208,208,208,205,205,205,205
1214169,2025-07-10 14:45:25.616,181,217,217,217,217,208,208,208,168,205,205,205,205
1214169,2025-07-10 14:45:25.616,182,163,163,163,163,168,168,168,168,205,205,179,179
1214169,2025-07-10 14:45:25.616,183,163,163,163,163,168,168,168,208,179,179,179,179
1214169,2025-07-10 14:45:25.616,184,216,216,216,216,208,208,208,208,179,179,179,179
1214169,2025-07-10 14:45:25.616,185,216,216,216,216,208,208,208,168,195,195,195,195
1214169,2025-07-10 14:45:25.616,186,164,164,164,164,168,168,168,168,195,195,195,195
1214169,2025-07-10 14:45:25.616,187,164,164,164,164,168,168,168,208,195,195,199,199
1214169,2025-07-10 14:45:25.616,188,216,216,216,216,208,208,208,208,199,199,199,199
1214169,2025-07-10 14:45:25.616,189,216,216,216,216,208,208,208,167,199,199,199,199
1214169,2025-07-10 14:45:25.616,190,165,165,165,165,167,167,167,167,177,177,177,177
1214169,2025-07-10 14:45:25.616,191,165,165,165,165,167,167,167,209,177,177,177,177
1214169,2025-07-10 14:45:25.616,192,216,216,216,216,209,209,209,209,177,177,198,198
1214169,2025-07-10 14:45:25.616,193,216,216,216,216,209,209,209,168,198,198,198,198
1214169,2025-07-10 14:45:25.616,194,165,165,165,165,168,168,168,168,198,198,198,198
1214169,2025-07-10 14:45:25.616,195,165,165,165,165,168,168,168,208,185,185,185,185
1214169,2025-07-10 14:45:25.616,196,215,215,215,215,208,208,208,208,185,185,185,185
1214169,2025-07-10 14:45:25.616,197,215,215,215,215,208,208,208,169,185,185,184,184
1214169,2025-07-10 14:45:25.616,198,166,166,166,166,169,169,169,169,184,184,184,184
1214169,2025-07-10 14:45:25.616,199,166,166,166,166,169,169,169,208,184,184,184,184
1215189,2025-07-10 14:45:27.091,0,214,214,214,214,208,208,208,208,205,205,205,205
1215189,2025-07-10 14:45:27.091,1,214,214,214,214,208,208,208,201,205,205,205,205
1215189,2025-07-10 14:45:27.091,2,201,201,201,201,201,201,201,201,205,205,192,192
1215189,2025-07-10 14:45:27.091,3,201,201,201,201,201,201,201,178,192,192,192,192
1215189,2025-07-10 14:45:27.091,4,182,182,182,182,178,178,178,178,192,192,192,192
1215189,2025-07-10 14:45:27.091,5,182,182,182,182,178,178,178,202,199,199,199,199
1215189,2025-07-10 14:45:27.091,6,198,198,198,198,202,202,202,202,199,199,199,199
1215189,2025-07-10 14:45:27.091,7,198,198,198,198,202,202,202,178,199,199,178,178
1215189,2025-07-10 14:45:27.091,8,182,182,182,182,178,178,178,178,178,178,178,178
1215189,2025-07-10 14:45:27.091,9,182,182,182,182,178,178,178,202,178,178,178,178
1215189,2025-07-10 14:45:27.091,10,198,198,198,198,202,202,202,202,199,199,199,199
1215189,2025-07-10 14:45:27.091,11,198,198,198,198,202,202,202,179,199,199,199,199
1215189,2025-07-10 14:45:27.091,12,182,182,182,182,179,179,179,179,199,199,190,190
1215189,2025-07-10 14:45:27.091,13,182,182,182,182,179,179,179,201,190,190,190,190
1215189,2025-07-10 14:45:27.091,14,197,197,197,197,201,201,201,201,190,190,190,190
1215189,2025-07-10 14:45:27.091,15,197,197,197,197,201,201,201,179,182,182,182,182
1215189,2025-07-10 14:45:27.091,16,183,183,183,183,179,179,179,179,182,182,182,182
1215189,2025-07-10 14:45:27.091,17,183,183,183,183,179,179,179,200,182,182,202,202
1215189,2025-07-10 14:45:27.091,18,196,196,196,196,200,200,200,200,202,202,202,202
1215189,2025-07-10 14:45:27.091,19,196,196,196,196,200,200,200,179,202,202,202,202
1215189,2025-07-10 14:45:27.091,20,184,184,184,184,179,179,179,179,179,179,179,179
1215189,2025-07-10 14:45:27.091,21,184,184,184,184,179,179,179,199,179,179,179,179
1215189,2025-07-10 14:45:27.091,22,195,195,195,195,199,199,199,199,179,179,192,192
1215189,2025-07-10 14:45:27.091,23,195,195,195,195,199,199,199,180,192,192,192,192
1215189,2025-07-10 14:45:27.091,24,184,184,184,184,180,180,180,180,192,192,192,192
1215189,2025-07-10 14:45:27.091,25,184,184,184,184,180,180,180,199,201,201,201,201
1215189,2025-07-10 14:45:27.091,26,194,194,194,194,199,199,199,199,201,201,201,201
1215189,2025-07-10 14:45:27.091,27,194,194,194,194,199,199,199,180,201,201,179,179
1215189,2025-07-10 14:45:27.091,28,185,185,185,185,180,180,180,180,179,179,179,179
1215189,2025-07-10 14:45:27.091,29,185,185,185,185,180,180,180,198,179,179,179,179
1215189,2025-07-10 14:45:27.091,30,193,193,193,193,198,198,198,198,197,197,197,197
1215189,2025-07-10 14:45:27.091,31,193,193,193,193,198,198,198,181,197,197,197,197
1215189,2025-07-10 14:45:27.091,32,186,186,186,186,181,181,181,181,197,197,193,193
1215189,2025-07-10 14:45:27.091,33,186,186,186,186,181,181,181,198,193,193,193,193
1215189,2025-07-10 14:45:27.091,34,192,192,192,192,198,198,198,198,193,193,193,193
1215189,2025-07-10 14:45:27.091,35,192,192,192,192,198,198,198,181,180,180,180,180
1215189,2025-07-10 14:45:27.091,36,186,186,186,186,181,181,181,181,180,180,180,180
1215189,2025-07-10 14:45:27.091,37,186,186,186,186,181,181,181,197,180,180,201,201
1215189,2025-07-10 14:45:27.091,38,192,192,192,192,197,197,197,197,201,201,201,201
1215189,2025-07-10 14:45:27.091,39,192,192,192,192,197,197,197,182,201,201,201,201
1215189,2025-07-10 14:45:27.091,40,187,187,187,187,182,182,182,182,180,180,180,180
1215189,2025-07-10 14:45:27.091,41,187,187,187,187,182,182,182,197,180,180,180,180
1215189,2025-07-10 14:45:27.091,42,190,190,190,190,197,197,197,197,180,180,190,190
1215189,2025-07-10 14:45:27.091,43,190,190,190,190,197,197,197,182,190,190,190,190
1215189,2025-07-10 14:45:27.091,44,189,189,189,189,182,182,182,182,190,190,190,190
1215189,2025-07-10 14:45:27.091,45,189,189,189,189,182,182,182,196,203,203,203,203
1215189,2025-07-10 14:45:27.091,46,189,189,189,189,196,196,196,196,203,203,203,203
1215189,2025-07-10 14:45:27.091,47,189,189,189,189,196,196,196,182,203,203,178,178
1215189,2025-07-10 14:45:27.091,48,190,190,190,190,182,182,182,182,178,178,178,178
1215189,2025-07-10 14:45:27.091,49,190,190,190,190,182,182,182,195,178,178,178,178
1215189,2025-07-10 14:45:27.091,50,188,188,188,188,195,195,195,195,197,197,197,197
1215189,2025-07-10 14:45:27.091,51,188,188,188,188,195,195,195,183,197,197,197,197
1215189,2025-07-10 14:45:27.091,52,192,192,192,192,183,183,183,183,197,197,197,197
1215189,2025-07-10 14:45:27.091,53,192,192,192,192,183,183,183,194,197,197,197,197
1215189,2025-07-10 14:45:27.091,54,185,185,185,185,194,194,194,194,197,197,197,197
1215189,2025-07-10 14:45:27.091,55,185,185,185,185,194,194,194,184,177,177,177,177
1215189,2025-07-10 14:45:27.091,56,194,194,194,194,184,184,184,184,177,177,177,177
1215189,2025-07-10 14:45:27.091,57,194,194,194,194,184,184,184,193,177,177,199,199
1215189,2025-07-10 14:45:27.091,58,184,184,184,184,193,193,193,193,199,199,199,199
1215189,2025-07-10 14:45:27.091,59,184,184,184,184,193,193,193,184,199,199,199,199
1215189,2025-07-10 14:45:27.091,60,194,194,194,194,184,184,184,184,184,184,184,184
1215189,2025-07-10 14:45:27.091,61,194,194,194,194,184,184,184,193,184,184,184,184
1215189,2025-07-10 14:45:27.091,62,184,184,184,184,193,193,193,193,184,184,186,186
1215189,2025-07-10 14:45:27.091,63,184,184,184,184,193,193,193,184,186,186,186,186
1215189,2025-07-10 14:45:27.091,64,195,195,195,195,184,184,184,184,186,186,186,186
1215189,2025-07-10 14:45:27.091,65,195,195,195,195,184,184,184,192,205,205,205,205
1215189,2025-07-10 14:45:27.091,66,183,183,183,183,192,192,192,192,205,205,205,205
1215189,2025-07-10 14:45:27.091,67,183,183,183,183,192,192,192,185,205,205,179,179
1215189,2025-07-10 14:45:27.091,68,196,196,196,196,185,185,185,185,179,179,179,179
1215189,2025-07-10 14:45:27.091,69,196,196,196,196,185,185,185,191,179,179,179,179
1215189,2025-07-10 14:45:27.091,70,182,182,182,182,191,191,191,191,195,195,195,195
1215189,2025-07-10 14:45:27.091,71,182,182,182,182,191,191,191,186,195,195,195,195
1215189,2025-07-10 14:45:27.091,72,198,198,198,198,186,186,186,186,195,195,199,199
1215189,2025-07-10 14:45:27.091,73,198,198,198,198,186,186,186,190,199,199,199,199
1215189,2025-07-10 14:45:27.091,74,181,181,181,181,190,190,190,190,199,199,199,199
1215189,2025-07-10 14:45:27.091,75,181,181,181,181,190,190,190,187,177,177,177,177
1215189,2025-07-10 14:45:27.091,76,200,200,200,200,187,187,187,187,177,177,177,177
1215189,2025-07-10 14:45:27.091,77,200,200,200,200,187,187,187,189,177,177,198,198
1215189,2025-07-10 14:45:27.091,78,179,179,179,179,189,189,189,189,198,198,198,198
1215189,2025-07-10 14:45:27.091,79,179,179,179,179,189,189,189,189,198,198,198,198
1215189,2025-07-10 14:45:27.091,80,202,202,202,202,189,189,189,189,186,186,186,186
1215189,2025-07-10 14:45:27.091,81,202,202,202,202,189,189,189,189,186,186,186,186
1215189,2025-07-10 14:45:27.091,82,177,177,177,177,189,189,189,189,186,186,183,183
1215189,2025-07-10 14:45:27.091,83,177,177,177,177,189,189,189,190,183,183,183,183
1215189,2025-07-10 14:45:27.091,84,203,203,203,203,190,190,190,190,183,183,183,183
1215189,2025-07-10 14:45:27.091,85,203,203,203,203,190,190,190,188,205,205,205,205
1215189,2025-07-10 14:45:27.091,86,176,176,176,176,188,188,188,188,205,205,205,205
1215189,2025-07-10 14:45:27.091,87,176,176,176,176,188,188,188,190,205,205,180,180
1215189,2025-07-10 14:45:27.091,88,204,204,204,204,190,190,190,190,180,180,180,180
1215189,2025-07-10 14:45:27.091,89,204,204,204,204,190,190,190,187,180,180,180,180
1215189,2025-07-10 14:45:27.091,90,174,174,174,174,187,187,187,187,194,194,194,194
1215189,2025-07-10 14:45:27.091,91,174,174,174,174,187,187,187,191,194,194,194,194
1215189,2025-07-10 14:45:27.091,92,205,205,205,205,191,191,191,191,194,194,201,201
1215189,2025-07-10 14:45:27.091,93,205,205,205,205,191,191,191,187,201,201,201,201
1215189,2025-07-10 14:45:27.091,94,174,174,174,174,187,187,187,187,201,201,201,201
1215189,2025-07-10 14:45:27.091,95,174,174,174,174,187,187,187,192,177,177,177,177
1215189,2025-07-10 14:45:27.091,96,206,206,206,206,192,192,192,192,177,177,177,177
1215189,2025-07-10 14:45:27.091,97,206,206,206,206,192,192,192,186,177,177,196,196
1215189,2025-07-10 14:45:27.091,98,173,173,173,173,186,186,186,186,196,196,196,196
1215189,2025-07-10 14:45:27.091,99,173,173,173,173,186,186,186,193,196,196,196,196
1215189,2025-07-10 14:45:27.091,100,208,208,208,208,193,193,193,193,190,190,190,190
1215189,2025-07-10 14:45:27.091,101,208,208,208,208,193,193,193,185,190,190,190,190
1215189,2025-07-10 14:45:27.091,102,172,172,172,172,185,185,185,185,190,190,181,181
1215189,2025-07-10 14:45:27.091,103,172,172,172,172,185,185,185,194,181,181,181,181
1215189,2025-07-10 14:45:27.091,104,209,209,209,209,194,194,194,194,181,181,181,181
1215189,2025-07-10 14:45:27.091,105,209,209,209,209,194,194,194,184,204,204,204,204
1215189,2025-07-10 14:45:27.091,106,170,170,170,170,184,184,184,184,204,204,204,204
1215189,2025-07-10 14:45:27.091,107,170,170,170,170,184,184,184,196,204,204,181,181
1215189,2025-07-10 14:45:27.091,108,210,210,210,210,196,196,196,196,181,181,181,181
1215189,2025-07-10 14:45:27.091,109,210,210,210,210,196,196,196,183,181,181,181,181
1215189,2025-07-10 14:45:27.091,110,170,170,170,170,183,183,183,183,192,192,192,192
1215189,2025-07-10 14:45:27.091,111,170,170,170,170,183,183,183,197,192,192,192,192
1215189,2025-07-10 14:45:27.091,112,211,211,211,211,197,197,197,197,192,192,203,203
1215189,2025-07-10 14:45:27.091,113,211,211,211,211,197,197,197,182,203,203,203,203
1215189,2025-07-10 14:45:27.091,114,168,168,168,168,182,182,182,182,203,203,203,203
1215189,2025-07-10 14:45:27.091,115,168,168,168,168,182,182,182,197,177,177,177,177
1215189,2025-07-10 14:45:27.091,116,212,212,212,212,197,197,197,197,177,177,177,177
1215189,2025-07-10 14:45:27.091,117,212,212,212,212,197,197,197,181,177,177,195,195
1215189,2025-07-10 14:45:27.091,118,168,168,168,168,181,181,181,181,195,195,195,195
1215189,2025-07-10 14:45:27.091,119,168,168,168,168,181,181,181,198,195,195,195,195
1215189,2025-07-10 14:45:27.091,120,212,212,212,212,198,198,198,198,194,194,194,194
1215189,2025-07-10 14:45:27.091,121,212,212,212,212,198,198,198,180,194,194,194,194
1215189,2025-07-10 14:45:27.091,122,167,167,167,167,180,180,180,180,194,194,179,179
1215189,2025-07-10 14:45:27.091,123,167,167,167,167,180,180,180,199,179,179,179,179
1215189,2025-07-10 14:45:27.091,124,213,213,213,213,199,199,199,199,179,179,179,179
1215189,2025-07-10 14:45:27.091,125,213,213,213,213,199,199,199,179,202,202,202,202
1215189,2025-07-10 14:45:27.091,126,166,166,166,166,179,179,179,179,202,202,202,202
1215189,2025-07-10 14:45:27.091,127,166,166,166,166,179,179,179,200,202,202,184,184
1215189,2025-07-10 14:45:27.091,128,214,214,214,214,200,200,200,200,184,184,184,184
1215189,2025-07-10 14:45:27.091,129,214,214,214,214,200,200,200,178,184,184,184,184
1215189,2025-07-10 14:45:27.091,130,164,164,164,164,178,178,178,178,189,189,189,189
1215189,2025-07-10 14:45:27.091,131,164,164,164,164,178,178,178,201,189,189,189,189
1215189,2025-07-10 14:45:27.091,132,215,215,215,215,201,201,201,201,189,189,204,204
1215189,2025-07-10 14:45:27.091,133,215,215,215,215,201,201,201,177,204,204,204,204
1215189,2025-07-10 14:45:27.091,134,163,163,163,163,177,177,177,177,204,204,204,204
1215189,2025-07-10 14:45:27.091,135,163,163,163,163,177,177,177,202,179,179,179,179
1215189,2025-07-10 14:45:27.091,136,216,216,216,216,202,202,202,202,179,179,179,179
1215189,2025-07-10 14:45:27.091,137,216,216,216,216,202,202,202,177,179,179,194,194
1215189,2025-07-10 14:45:27.091,138,163,163,163,163,177,177,177,177,194,194,194,194
1215189,2025-07-10 14:45:27.091,139,163,163,163,163,177,177,177,202,194,194,194,194
1215189,2025-07-10 14:45:27.091,140,216,216,216,216,202,202,202,202,198,198,198,198
1215189,2025-07-10 14:45:27.091,141,216,216,216,216,202,202,202,176,198,198,198,198
1215189,2025-07-10 14:45:27.091,142,162,162,162,162,176,176,176,176,198,198,179,179
1215189,2025-07-10 14:45:27.091,143,162,162,162,162,176,176,176,202,179,179,179,179
1215189,2025-07-10 14:45:27.091,144,217,217,217,217,202,202,202,202,179,179,179,179
1215189,2025-07-10 14:45:27.091,145,217,217,217,217,202,202,202,175,200,200,200,200
1215189,2025-07-10 14:45:27.091,146,162,162,162,162,175,175,175,175,200,200,200,200
1215189,2025-07-10 14:45:27.091,147,162,162,162,162,175,175,175,203,200,200,187,187
1215189,2025-07-10 14:45:27.091,148,217,217,217,217,203,203,203,203,187,187,187,187
1215189,2025-07-10 14:45:27.091,149,217,217,217,217,203,203,203,174,187,187,187,187
1215189,2025-07-10 14:45:27.091,150,161,161,161,161,174,174,174,174,185,185,185,185
1215189,2025-07-10 14:45:27.091,151,161,161,161,161,174,174,174,203,185,185,185,185
1215189,2025-07-10 14:45:27.091,152,218,218,218,218,203,203,203,203,185,185,202,202
1215189,2025-07-10 14:45:27.091,153,218,218,218,218,203,203,203,173,202,202,202,202
1215189,2025-07-10 14:45:27.091,154,160,160,160,160,173,173,173,173,202,202,202,202
1215189,2025-07-10 14:45:27.091,155,160,160,160,160,173,173,173,205,179,179,179,179
1215189,2025-07-10 14:45:27.091,156,218,218,218,218,205,205,205,205,179,179,179,179
1215189,2025-07-10 14:45:27.091,157,218,218,218,218,205,205,205,172,179,179,193,193
1215189,2025-07-10 14:45:27.091,158,161,161,161,161,172,172,172,172,193,193,193,193
1215189,2025-07-10 14:45:27.091,159,161,161,161,161,172,172,172,205,193,193,193,193
1215189,2025-07-10 14:45:27.091,160,218,218,218,218,205,205,205,205,201,201,201,201
1215189,2025-07-10 14:45:27.091,161,218,218,218,218,205,205,205,171,201,201,201,201
1215189,2025-07-10 14:45:27.091,162,160,160,160,160,171,171,171,171,201,201,179,179
1215189,2025-07-10 14:45:27.091,163,160,160,160,160,171,171,171,205,179,179,179,179
1215189,2025-07-10 14:45:27.091,164,219,219,219,219,205,205,205,205,179,179,179,179
1215189,2025-07-10 14:45:27.091,165,219,219,219,219,205,205,205,171,197,197,197,197
1215189,2025-07-10 14:45:27.091,166,159,159,159,159,171,171,171,171,197,197,197,197
1215189,2025-07-10 14:45:27.091,167,159,159,159,159,171,171,171,205,197,197,192,192
1215189,2025-07-10 14:45:27.091,168,219,219,219,219,205,205,205,205,192,192,192,192
1215189,2025-07-10 14:45:27.091,169,219,219,219,219,205,205,205,171,192,192,192,192
1215189,2025-07-10 14:45:27.091,170,160,160,160,160,171,171,171,171,180,180,180,180
1215189,2025-07-10 14:45:27.091,171,160,160,160,160,171,171,171,206,180,180,180,180
1215189,2025-07-10 14:45:27.091,172,219,219,219,219,206,206,206,206,180,180,201,201
1215189,2025-07-10 14:45:27.091,173,219,219,219,219,206,206,206,170,201,201,201,201
1215189,2025-07-10 14:45:27.091,174,159,159,159,159,170,170,170,170,201,201,201,201
1215189,2025-07-10 14:45:27.091,175,159,159,159,159,170,170,170,206,180,180,180,180
1215189,2025-07-10 14:45:27.091,176,219,219,219,219,206,206,206,206,180,180,180,180
1215189,2025-07-10 14:45:27.091,177,219,219,219,219,206,206,206,170,180,180,190,190
1215189,2025-07-10 14:45:27.091,178,159,159,159,159,170,170,170,170,190,190,190,190
1215189,2025-07-10 14:45:27.091,179,159,159,159,159,170,170,170,207,190,190,190,190
1215189,2025-07-10 14:45:27.091,180,220,220,220,220,207,207,207,207,203,203,203,203
1215189,2025-07-10 14:45:27.091,181,220,220,220,220,207,207,207,169,203,203,203,203
1215189,2025-07-10 14:45:27.091,182,159,159,159,159,169,169,169,169,203,203,179,179
1215189,2025-07-10 14:45:27.091,183,159,159,159,159,169,169,169,207,179,179,179,179
1215189,2025-07-10 14:45:27.091,184,220,220,220,220,207,207,207,207,179,179,179,179
1215189,2025-07-10 14:45:27.091,185,220,220,220,220,207,207,207,169,196,196,196,196
1215189,2025-07-10 14:45:27.091,186,160,160,160,160,169,169,169,169,196,196,196,196
1215189,2025-07-10 14:45:27.091,187,160,160,160,160,169,169,169,208,196,196,196,196
1215189,2025-07-10 14:45:27.091,188,219,219,219,219,208,208,208,208,196,196,196,196
1215189,2025-07-10 14:45:27.091,189,219,219,219,219,208,208,208,169,196,196,196,196
1215189,2025-07-10 14:45:27.091,190,161,161,161,161,169,169,169,169,177,177,177,177
1215189,2025-07-10 14:45:27.091,191,161,161,161,161,169,169,169,208,177,177,177,177
1215189,2025-07-10 14:45:27.091,192,219,219,219,219,208,208,208,208,177,177,200,200
1215189,2025-07-10 14:45:27.091,193,219,219,219,219,208,208,208,168,200,200,200,200
1215189,2025-07-10 14:45:27.091,194,162,162,162,162,168,168,168,168,200,200,200,200
1215189,2025-07-10 14:45:27.091,195,162,162,162,162,168,168,168,208,183,183,183,183
1215189,2025-07-10 14:45:27.091,196,217,217,217,217,208,208,208,208,183,183,183,183
1215189,2025-07-10 14:45:27.091,197,217,217,217,217,208,208,208,168,183,183,187,187
1215189,2025-07-10 14:45:27.091,198,163,163,163,163,168,168,168,168,187,187,187,187
1215189,2025-07-10 14:45:27.091,199,163,163,163,163,168,168,168,208,187,187,187,187
